frequency,raw,error,smoothed,error_smoothed,equalization,parametric_eq,fixed_band_eq,equalized_raw,equalized_smoothed,target
20.00,-3.61,0.28,-3.62,0.27,-0.28,-0.31,-0.39,-3.89,-3.90,-3.89
20.20,-3.58,0.30,-3.58,0.30,-0.30,-0.32,-0.40,-3.88,-3.88,-3.88
20.40,-3.54,0.31,-3.53,0.32,-0.32,-0.33,-0.42,-3.86,-3.85,-3.85
20.61,-3.48,0.36,-3.49,0.34,-0.34,-0.34,-0.43,-3.82,-3.83,-3.84
20.81,-3.43,0.36,-3.44,0.36,-0.36,-0.35,-0.45,-3.79,-3.80,-3.79
21.02,-3.39,0.39,-3.39,0.38,-0.38,-0.36,-0.46,-3.77,-3.77,-3.78
21.23,-3.35,0.39,-3.35,0.40,-0.40,-0.37,-0.48,-3.75,-3.75,-3.74
21.44,-3.30,0.42,-3.31,0.42,-0.42,-0.38,-0.49,-3.72,-3.73,-3.72
21.66,-3.26,0.44,-3.26,0.44,-0.44,-0.39,-0.51,-3.71,-3.70,-3.70
21.87,-3.21,0.45,-3.21,0.46,-0.46,-0.40,-0.53,-3.68,-3.67,-3.66
22.09,-3.15,0.49,-3.15,0.48,-0.48,-0.41,-0.54,-3.64,-3.64,-3.64
22.31,-3.09,0.50,-3.10,0.51,-0.51,-0.42,-0.56,-3.60,-3.60,-3.59
22.54,-3.04,0.54,-3.05,0.53,-0.53,-0.44,-0.58,-3.57,-3.57,-3.58
22.76,-3.01,0.54,-3.01,0.55,-0.54,-0.45,-0.60,-3.56,-3.55,-3.55
22.99,-2.96,0.58,-2.97,0.57,-0.56,-0.46,-0.62,-3.52,-3.53,-3.54
23.22,-2.93,0.57,-2.94,0.58,-0.58,-0.48,-0.64,-3.51,-3.51,-3.51
23.45,-2.90,0.60,-2.90,0.59,-0.59,-0.49,-0.66,-3.50,-3.50,-3.51
23.69,-2.87,0.58,-2.87,0.60,-0.61,-0.51,-0.68,-3.48,-3.48,-3.46
23.92,-2.83,0.62,-2.83,0.62,-0.62,-0.53,-0.70,-3.46,-3.45,-3.46
24.16,-2.78,0.63,-2.79,0.64,-0.64,-0.54,-0.72,-3.42,-3.43,-3.42
24.40,-2.75,0.66,-2.75,0.66,-0.66,-0.56,-0.75,-3.41,-3.42,-3.42
24.65,-2.72,0.69,-2.72,0.68,-0.68,-0.58,-0.77,-3.41,-3.40,-3.42
24.89,-2.67,0.70,-2.68,0.71,-0.71,-0.60,-0.79,-3.38,-3.39,-3.37
25.14,-2.63,0.74,-2.63,0.73,-0.73,-0.62,-0.81,-3.37,-3.36,-3.37
25.39,-2.57,0.76,-2.58,0.76,-0.76,-0.65,-0.84,-3.33,-3.33,-3.33
25.65,-2.52,0.80,-2.53,0.79,-0.78,-0.67,-0.86,-3.31,-3.32,-3.32
25.91,-2.50,0.82,-2.49,0.81,-0.81,-0.69,-0.88,-3.31,-3.30,-3.32
26.16,-2.46,0.82,-2.47,0.83,-0.83,-0.72,-0.90,-3.29,-3.30,-3.28
26.43,-2.43,0.85,-2.44,0.85,-0.85,-0.75,-0.93,-3.28,-3.29,-3.28
26.69,-2.42,0.86,-2.41,0.87,-0.87,-0.77,-0.95,-3.29,-3.28,-3.28
26.96,-2.37,0.91,-2.39,0.90,-0.89,-0.80,-0.97,-3.26,-3.28,-3.28
27.23,-2.37,0.91,-2.37,0.91,-0.91,-0.83,-0.99,-3.28,-3.28,-3.28
27.50,-2.33,0.94,-2.34,0.94,-0.93,-0.86,-1.01,-3.26,-3.27,-3.27
27.77,-2.33,0.94,-2.33,0.95,-0.95,-0.89,-1.03,-3.29,-3.28,-3.27
28.05,-2.29,0.98,-2.30,0.97,-0.98,-0.92,-1.05,-3.27,-3.28,-3.28
28.33,-2.28,0.99,-2.28,1.00,-1.00,-0.95,-1.07,-3.29,-3.28,-3.28
28.62,-2.24,1.03,-2.24,1.03,-1.03,-0.98,-1.09,-3.28,-3.28,-3.28
28.90,-2.20,1.07,-2.21,1.06,-1.07,-1.01,-1.10,-3.27,-3.28,-3.28
29.19,-2.18,1.10,-2.18,1.10,-1.11,-1.04,-1.12,-3.29,-3.29,-3.28
29.48,-2.14,1.14,-2.14,1.15,-1.15,-1.07,-1.13,-3.30,-3.29,-3.28
29.78,-2.09,1.21,-2.10,1.20,-1.20,-1.09,-1.14,-3.30,-3.30,-3.30
30.08,-2.05,1.27,-2.05,1.26,-1.26,-1.12,-1.15,-3.31,-3.31,-3.32
30.38,-2.00,1.32,-2.01,1.31,-1.31,-1.14,-1.16,-3.32,-3.32,-3.32
30.68,-1.96,1.35,-1.96,1.36,-1.37,-1.15,-1.16,-3.33,-3.33,-3.31
30.99,-1.91,1.41,-1.92,1.42,-1.43,-1.16,-1.17,-3.34,-3.34,-3.33
31.30,-1.87,1.49,-1.87,1.48,-1.48,-1.17,-1.17,-3.35,-3.35,-3.37
31.61,-1.83,1.53,-1.83,1.53,-1.52,-1.18,-1.17,-3.36,-3.36,-3.37
31.93,-1.80,1.56,-1.81,1.57,-1.56,-1.18,-1.17,-3.37,-3.37,-3.37
32.24,-1.77,1.60,-1.78,1.59,-1.59,-1.17,-1.17,-3.37,-3.37,-3.37
32.57,-1.76,1.61,-1.75,1.61,-1.61,-1.17,-1.16,-3.38,-3.37,-3.37
32.89,-1.72,1.61,-1.72,1.62,-1.62,-1.15,-1.16,-3.35,-3.34,-3.33
33.22,-1.68,1.63,-1.69,1.62,-1.62,-1.14,-1.15,-3.30,-3.31,-3.31
33.55,-1.65,1.61,-1.66,1.61,-1.60,-1.12,-1.14,-3.26,-3.27,-3.27
33.89,-1.64,1.58,-1.64,1.58,-1.57,-1.10,-1.13,-3.21,-3.21,-3.23
34.23,-1.64,1.51,-1.63,1.53,-1.53,-1.08,-1.12,-3.17,-3.15,-3.15
34.57,-1.59,1.50,-1.60,1.48,-1.47,-1.06,-1.10,-3.06,-3.07,-3.09
34.92,-1.57,1.40,-1.58,1.40,-1.40,-1.04,-1.09,-2.97,-2.97,-2.97
35.27,-1.54,1.31,-1.54,1.31,-1.31,-1.02,-1.07,-2.86,-2.85,-2.86
35.62,-1.51,1.19,-1.51,1.22,-1.22,-0.99,-1.06,-2.73,-2.72,-2.71
35.97,-1.46,1.13,-1.47,1.12,-1.11,-0.97,-1.04,-2.57,-2.58,-2.60
36.33,-1.43,1.02,-1.44,1.01,-1.00,-0.95,-1.02,-2.43,-2.44,-2.45
36.70,-1.42,0.89,-1.41,0.90,-0.88,-0.93,-1.00,-2.31,-2.29,-2.32
37.06,-1.38,0.77,-1.39,0.77,-0.77,-0.91,-0.98,-2.15,-2.15,-2.15
37.43,-1.36,0.64,-1.36,0.65,-0.65,-0.89,-0.96,-2.02,-2.02,-2.01
37.81,-1.33,0.54,-1.33,0.54,-0.55,-0.87,-0.94,-1.88,-1.88,-1.87
38.19,-1.30,0.44,-1.31,0.44,-0.46,-0.85,-0.92,-1.76,-1.76,-1.74
38.57,-1.27,0.37,-1.28,0.37,-0.38,-0.84,-0.90,-1.66,-1.66,-1.65
38.95,-1.25,0.32,-1.25,0.32,-0.33,-0.82,-0.88,-1.58,-1.57,-1.57
39.34,-1.22,0.29,-1.23,0.28,-0.29,-0.81,-0.86,-1.51,-1.52,-1.51
39.74,-1.20,0.25,-1.21,0.26,-0.27,-0.80,-0.84,-1.48,-1.48,-1.46
40.14,-1.20,0.26,-1.19,0.26,-0.27,-0.79,-0.82,-1.48,-1.46,-1.46
40.54,-1.16,0.30,-1.18,0.28,-0.29,-0.78,-0.80,-1.45,-1.47,-1.46
40.94,-1.16,0.31,-1.16,0.32,-0.31,-0.77,-0.78,-1.48,-1.47,-1.48
41.35,-1.15,0.36,-1.15,0.36,-0.34,-0.76,-0.76,-1.50,-1.49,-1.51
41.76,-1.12,0.40,-1.13,0.39,-0.38,-0.75,-0.74,-1.51,-1.52,-1.52
42.18,-1.12,0.43,-1.12,0.43,-0.43,-0.74,-0.72,-1.55,-1.54,-1.56
42.60,-1.09,0.47,-1.10,0.47,-0.47,-0.73,-0.70,-1.57,-1.57,-1.56
43.03,-1.07,0.50,-1.07,0.51,-0.52,-0.73,-0.68,-1.59,-1.59,-1.58
43.46,-1.04,0.56,-1.04,0.55,-0.56,-0.72,-0.66,-1.60,-1.60,-1.60
43.90,-0.99,0.60,-1.01,0.60,-0.60,-0.72,-0.65,-1.60,-1.61,-1.59
44.33,-0.99,0.65,-0.98,0.65,-0.64,-0.71,-0.63,-1.63,-1.62,-1.64
44.78,-0.94,0.70,-0.96,0.68,-0.67,-0.71,-0.61,-1.62,-1.63,-1.64
45.23,-0.94,0.71,-0.94,0.71,-0.70,-0.70,-0.60,-1.64,-1.64,-1.65
45.68,-0.94,0.70,-0.93,0.72,-0.72,-0.70,-0.58,-1.66,-1.65,-1.64
46.13,-0.90,0.75,-0.92,0.73,-0.73,-0.69,-0.56,-1.64,-1.65,-1.65
46.60,-0.90,0.74,-0.91,0.75,-0.74,-0.69,-0.55,-1.64,-1.65,-1.65
47.06,-0.90,0.75,-0.90,0.75,-0.74,-0.68,-0.53,-1.65,-1.64,-1.65
47.53,-0.90,0.74,-0.90,0.73,-0.74,-0.68,-0.52,-1.64,-1.64,-1.65
48.01,-0.90,0.71,-0.90,0.72,-0.73,-0.67,-0.51,-1.64,-1.63,-1.61
48.49,-0.90,0.72,-0.90,0.72,-0.72,-0.67,-0.49,-1.63,-1.63,-1.62
48.97,-0.90,0.71,-0.91,0.71,-0.71,-0.66,-0.48,-1.61,-1.62,-1.62
49.46,-0.93,0.71,-0.93,0.71,-0.69,-0.66,-0.47,-1.63,-1.63,-1.64
49.96,-0.96,0.69,-0.96,0.68,-0.68,-0.65,-0.46,-1.64,-1.64,-1.65
50.46,-0.99,0.66,-1.00,0.66,-0.66,-0.64,-0.44,-1.65,-1.66,-1.65
50.96,-1.03,0.62,-1.03,0.63,-0.64,-0.63,-0.43,-1.68,-1.68,-1.66
51.47,-1.07,0.61,-1.07,0.60,-0.62,-0.62,-0.42,-1.69,-1.69,-1.69
51.99,-1.10,0.58,-1.11,0.59,-0.59,-0.61,-0.41,-1.70,-1.70,-1.68
52.51,-1.14,0.57,-1.14,0.57,-0.56,-0.60,-0.40,-1.70,-1.70,-1.71
53.03,-1.18,0.56,-1.19,0.54,-0.52,-0.58,-0.39,-1.71,-1.71,-1.74
53.56,-1.24,0.50,-1.24,0.50,-0.48,-0.56,-0.39,-1.73,-1.73,-1.74
54.10,-1.30,0.44,-1.30,0.45,-0.44,-0.54,-0.38,-1.75,-1.74,-1.74
54.64,-1.34,0.40,-1.35,0.39,-0.40,-0.52,-0.37,-1.74,-1.75,-1.74
55.18,-1.38,0.36,-1.39,0.34,-0.35,-0.50,-0.36,-1.74,-1.74,-1.74
55.74,-1.42,0.27,-1.41,0.30,-0.30,-0.47,-0.36,-1.73,-1.71,-1.69
56.29,-1.42,0.26,-1.43,0.25,-0.26,-0.43,-0.35,-1.68,-1.69,-1.68
56.86,-1.42,0.22,-1.44,0.21,-0.21,-0.39,-0.35,-1.64,-1.65,-1.65
57.42,-1.46,0.17,-1.45,0.18,-0.17,-0.35,-0.35,-1.64,-1.62,-1.64
58.00,-1.46,0.14,-1.46,0.14,-0.13,-0.30,-0.34,-1.60,-1.60,-1.60
58.58,-1.46,0.10,-1.47,0.10,-0.10,-0.25,-0.34,-1.56,-1.57,-1.56
59.16,-1.46,0.06,-1.46,0.06,-0.07,-0.19,-0.34,-1.53,-1.53,-1.52
59.76,-1.46,0.03,-1.46,0.03,-0.03,-0.13,-0.34,-1.50,-1.50,-1.49
60.35,-1.46,-0.00,-1.46,-0.00,0.00,-0.07,-0.34,-1.46,-1.46,-1.46
60.96,-1.46,-0.04,-1.46,-0.03,0.04,-0.00,-0.34,-1.42,-1.42,-1.43
61.57,-1.46,-0.06,-1.46,-0.06,0.08,0.06,-0.34,-1.38,-1.38,-1.40
62.18,-1.46,-0.10,-1.46,-0.10,0.11,0.11,-0.34,-1.35,-1.35,-1.37
62.80,-1.46,-0.15,-1.48,-0.15,0.15,0.16,-0.35,-1.32,-1.33,-1.31
63.43,-1.50,-0.18,-1.49,-0.19,0.18,0.19,-0.35,-1.32,-1.31,-1.32
64.07,-1.51,-0.24,-1.51,-0.22,0.21,0.20,-0.36,-1.30,-1.29,-1.28
64.71,-1.51,-0.24,-1.52,-0.24,0.24,0.19,-0.36,-1.28,-1.28,-1.27
65.35,-1.51,-0.23,-1.52,-0.25,0.26,0.16,-0.37,-1.26,-1.27,-1.28
66.01,-1.53,-0.25,-1.53,-0.25,0.26,0.11,-0.38,-1.27,-1.27,-1.28
66.67,-1.53,-0.25,-1.53,-0.25,0.25,0.04,-0.39,-1.28,-1.28,-1.28
67.33,-1.51,-0.23,-1.52,-0.24,0.22,-0.04,-0.40,-1.29,-1.30,-1.28
68.01,-1.49,-0.21,-1.48,-0.20,0.18,-0.12,-0.41,-1.32,-1.31,-1.28
68.69,-1.42,-0.14,-1.43,-0.14,0.11,-0.20,-0.42,-1.31,-1.32,-1.28
69.37,-1.36,-0.04,-1.36,-0.05,0.04,-0.28,-0.43,-1.33,-1.32,-1.32
70.07,-1.26,0.05,-1.27,0.06,-0.06,-0.36,-0.45,-1.32,-1.33,-1.31
70.77,-1.18,0.18,-1.19,0.17,-0.16,-0.44,-0.46,-1.34,-1.34,-1.37
71.48,-1.10,0.27,-1.09,0.28,-0.27,-0.51,-0.47,-1.37,-1.36,-1.37
72.19,-0.99,0.40,-1.00,0.39,-0.38,-0.57,-0.49,-1.38,-1.39,-1.39
72.91,-0.90,0.51,-0.91,0.50,-0.50,-0.63,-0.51,-1.40,-1.41,-1.42
73.64,-0.83,0.59,-0.82,0.61,-0.61,-0.69,-0.52,-1.44,-1.43,-1.42
74.38,-0.73,0.70,-0.74,0.70,-0.71,-0.74,-0.54,-1.44,-1.45,-1.44
75.12,-0.65,0.81,-0.65,0.80,-0.80,-0.78,-0.56,-1.45,-1.45,-1.46
75.87,-0.57,0.89,-0.57,0.89,-0.88,-0.82,-0.58,-1.45,-1.45,-1.46
76.63,-0.49,0.96,-0.49,0.96,-0.95,-0.86,-0.60,-1.44,-1.44,-1.46
77.40,-0.42,1.03,-0.43,1.03,-1.01,-0.90,-0.62,-1.43,-1.44,-1.45
78.17,-0.38,1.08,-0.39,1.08,-1.06,-0.93,-0.64,-1.44,-1.45,-1.46
78.95,-0.38,1.13,-0.38,1.11,-1.11,-0.96,-0.66,-1.49,-1.49,-1.51
79.74,-0.38,1.13,-0.38,1.13,-1.15,-0.99,-0.68,-1.54,-1.53,-1.51
80.54,-0.36,1.15,-0.36,1.16,-1.20,-1.01,-0.71,-1.56,-1.55,-1.51
81.35,-0.31,1.20,-0.31,1.21,-1.24,-1.04,-0.73,-1.55,-1.55,-1.51
82.16,-0.26,1.29,-0.26,1.27,-1.29,-1.06,-0.76,-1.55,-1.55,-1.55
82.98,-0.20,1.35,-0.21,1.34,-1.33,-1.08,-0.78,-1.54,-1.54,-1.56
83.81,-0.17,1.38,-0.17,1.40,-1.38,-1.10,-0.81,-1.55,-1.55,-1.56
84.65,-0.14,1.46,-0.14,1.44,-1.43,-1.12,-0.84,-1.57,-1.57,-1.60
85.50,-0.11,1.48,-0.11,1.48,-1.48,-1.14,-0.86,-1.59,-1.59,-1.59
86.35,-0.08,1.51,-0.09,1.52,-1.52,-1.15,-0.89,-1.60,-1.61,-1.60
87.22,-0.05,1.55,-0.05,1.55,-1.56,-1.17,-0.92,-1.61,-1.61,-1.60
88.09,-0.03,1.58,-0.03,1.58,-1.59,-1.19,-0.95,-1.63,-1.62,-1.62
88.97,0.01,1.63,-0.01,1.62,-1.62,-1.20,-0.98,-1.62,-1.63,-1.62
89.86,0.01,1.63,0.02,1.65,-1.65,-1.22,-1.01,-1.64,-1.63,-1.63
90.76,0.05,1.69,0.04,1.69,-1.68,-1.23,-1.05,-1.63,-1.63,-1.64
91.66,0.07,1.72,0.06,1.70,-1.70,-1.24,-1.08,-1.63,-1.64,-1.65
92.58,0.10,1.71,0.09,1.72,-1.71,-1.26,-1.11,-1.62,-1.62,-1.62
93.51,0.10,1.71,0.11,1.72,-1.72,-1.27,-1.15,-1.63,-1.61,-1.62
94.44,0.14,1.74,0.13,1.73,-1.73,-1.28,-1.18,-1.59,-1.60,-1.60
95.39,0.14,1.74,0.13,1.74,-1.73,-1.30,-1.22,-1.59,-1.60,-1.60
96.34,0.14,1.74,0.14,1.74,-1.73,-1.31,-1.25,-1.59,-1.59,-1.60
97.30,0.14,1.73,0.13,1.72,-1.72,-1.32,-1.29,-1.59,-1.59,-1.60
98.28,0.14,1.69,0.14,1.71,-1.72,-1.33,-1.33,-1.58,-1.58,-1.56
99.26,0.14,1.69,0.15,1.71,-1.72,-1.34,-1.36,-1.58,-1.57,-1.56
100.25,0.18,1.73,0.16,1.71,-1.71,-1.35,-1.40,-1.54,-1.55,-1.55
101.25,0.18,1.73,0.17,1.71,-1.71,-1.36,-1.44,-1.54,-1.54,-1.55
102.27,0.18,1.69,0.19,1.71,-1.71,-1.37,-1.48,-1.53,-1.52,-1.51
103.29,0.20,1.71,0.20,1.72,-1.71,-1.38,-1.51,-1.51,-1.51,-1.51
104.32,0.23,1.74,0.21,1.72,-1.71,-1.39,-1.55,-1.49,-1.50,-1.51
105.37,0.23,1.74,0.23,1.72,-1.72,-1.40,-1.59,-1.49,-1.49,-1.51
106.42,0.23,1.69,0.24,1.72,-1.72,-1.41,-1.63,-1.50,-1.48,-1.46
107.48,0.27,1.73,0.25,1.71,-1.73,-1.42,-1.66,-1.46,-1.48,-1.46
108.56,0.27,1.73,0.27,1.72,-1.73,-1.43,-1.70,-1.46,-1.46,-1.46
109.64,0.27,1.72,0.28,1.74,-1.73,-1.44,-1.73,-1.47,-1.45,-1.46
110.74,0.31,1.76,0.29,1.75,-1.74,-1.44,-1.77,-1.43,-1.44,-1.46
111.85,0.31,1.76,0.30,1.75,-1.74,-1.45,-1.80,-1.44,-1.44,-1.46
112.97,0.31,1.74,0.31,1.75,-1.75,-1.46,-1.83,-1.44,-1.44,-1.43
114.10,0.31,1.73,0.31,1.74,-1.76,-1.47,-1.86,-1.45,-1.44,-1.42
115.24,0.33,1.75,0.33,1.75,-1.76,-1.48,-1.89,-1.44,-1.43,-1.42
116.39,0.36,1.78,0.35,1.76,-1.76,-1.48,-1.91,-1.41,-1.42,-1.42
117.55,0.36,1.77,0.36,1.78,-1.76,-1.49,-1.94,-1.41,-1.41,-1.42
118.73,0.36,1.77,0.36,1.78,-1.76,-1.50,-1.96,-1.40,-1.40,-1.41
119.92,0.36,1.78,0.36,1.77,-1.75,-1.51,-1.98,-1.40,-1.39,-1.42
121.12,0.36,1.74,0.35,1.75,-1.75,-1.51,-2.00,-1.39,-1.39,-1.39
122.33,0.36,1.74,0.34,1.73,-1.74,-1.52,-2.01,-1.38,-1.40,-1.38
123.55,0.31,1.70,0.32,1.71,-1.73,-1.53,-2.02,-1.42,-1.40,-1.39
124.79,0.31,1.69,0.31,1.71,-1.72,-1.53,-2.03,-1.41,-1.41,-1.39
126.03,0.31,1.73,0.29,1.70,-1.71,-1.54,-2.04,-1.40,-1.41,-1.42
127.29,0.29,1.70,0.28,1.70,-1.70,-1.55,-2.04,-1.42,-1.42,-1.42
128.57,0.27,1.69,0.28,1.70,-1.70,-1.55,-2.04,-1.43,-1.42,-1.42
129.85,0.27,1.69,0.28,1.70,-1.69,-1.56,-2.04,-1.43,-1.41,-1.42
131.15,0.31,1.71,0.29,1.70,-1.69,-1.57,-2.04,-1.38,-1.40,-1.41
132.46,0.31,1.69,0.31,1.70,-1.68,-1.57,-2.03,-1.38,-1.37,-1.39
133.79,0.31,1.68,0.31,1.68,-1.68,-1.58,-2.02,-1.37,-1.37,-1.37
135.12,0.31,1.68,0.29,1.66,-1.67,-1.58,-2.01,-1.36,-1.38,-1.37
136.48,0.27,1.64,0.28,1.65,-1.66,-1.59,-2.00,-1.40,-1.38,-1.37
137.84,0.27,1.64,0.28,1.66,-1.66,-1.59,-1.99,-1.40,-1.38,-1.37
139.22,0.31,1.68,0.29,1.66,-1.66,-1.60,-1.97,-1.36,-1.37,-1.37
140.61,0.31,1.67,0.31,1.67,-1.66,-1.60,-1.95,-1.36,-1.35,-1.36
142.02,0.34,1.66,0.33,1.67,-1.67,-1.61,-1.94,-1.33,-1.33,-1.32
143.44,0.36,1.67,0.35,1.67,-1.68,-1.61,-1.92,-1.32,-1.32,-1.32
144.87,0.37,1.68,0.37,1.69,-1.69,-1.62,-1.90,-1.32,-1.32,-1.32
146.32,0.40,1.72,0.39,1.70,-1.70,-1.62,-1.88,-1.30,-1.31,-1.32
147.78,0.40,1.70,0.41,1.71,-1.70,-1.63,-1.86,-1.31,-1.30,-1.30
149.26,0.44,1.71,0.43,1.71,-1.71,-1.63,-1.84,-1.27,-1.28,-1.27
150.75,0.44,1.72,0.43,1.71,-1.71,-1.64,-1.82,-1.27,-1.27,-1.28
152.26,0.44,1.71,0.44,1.72,-1.71,-1.64,-1.80,-1.27,-1.27,-1.27
153.78,0.44,1.71,0.44,1.71,-1.70,-1.64,-1.78,-1.27,-1.27,-1.28
155.32,0.44,1.72,0.44,1.70,-1.70,-1.65,-1.76,-1.26,-1.26,-1.28
156.88,0.44,1.67,0.43,1.68,-1.69,-1.65,-1.74,-1.26,-1.26,-1.23
158.44,0.44,1.66,0.44,1.67,-1.69,-1.65,-1.72,-1.25,-1.25,-1.23
160.03,0.45,1.67,0.45,1.68,-1.68,-1.66,-1.70,-1.23,-1.23,-1.23
161.63,0.47,1.69,0.46,1.68,-1.67,-1.66,-1.69,-1.21,-1.21,-1.23
163.24,0.47,1.68,0.47,1.67,-1.67,-1.66,-1.67,-1.20,-1.20,-1.22
164.88,0.47,1.64,0.47,1.66,-1.66,-1.67,-1.65,-1.19,-1.19,-1.18
166.53,0.47,1.64,0.47,1.65,-1.65,-1.67,-1.64,-1.18,-1.18,-1.18
168.19,0.47,1.64,0.47,1.64,-1.63,-1.67,-1.63,-1.17,-1.17,-1.18
169.87,0.47,1.64,0.46,1.63,-1.62,-1.68,-1.62,-1.15,-1.16,-1.17
171.57,0.47,1.63,0.46,1.61,-1.61,-1.68,-1.61,-1.14,-1.15,-1.16
173.29,0.44,1.57,0.45,1.59,-1.60,-1.68,-1.60,-1.16,-1.15,-1.14
175.02,0.44,1.57,0.44,1.57,-1.59,-1.68,-1.59,-1.16,-1.16,-1.14
176.77,0.44,1.58,0.44,1.57,-1.59,-1.68,-1.58,-1.16,-1.16,-1.14
178.54,0.45,1.58,0.45,1.59,-1.59,-1.69,-1.58,-1.15,-1.14,-1.14
180.32,0.47,1.61,0.47,1.61,-1.60,-1.69,-1.57,-1.13,-1.13,-1.14
182.13,0.49,1.62,0.48,1.62,-1.60,-1.69,-1.57,-1.12,-1.12,-1.14
183.95,0.49,1.63,0.49,1.63,-1.61,-1.69,-1.57,-1.13,-1.12,-1.14
185.79,0.49,1.62,0.49,1.62,-1.62,-1.69,-1.57,-1.14,-1.13,-1.13
187.65,0.49,1.62,0.49,1.63,-1.63,-1.70,-1.57,-1.14,-1.14,-1.14
189.52,0.49,1.63,0.49,1.63,-1.64,-1.70,-1.57,-1.15,-1.15,-1.14
191.42,0.49,1.65,0.49,1.64,-1.64,-1.70,-1.57,-1.16,-1.16,-1.16
193.33,0.49,1.64,0.48,1.65,-1.65,-1.70,-1.57,-1.16,-1.17,-1.16
195.27,0.49,1.66,0.49,1.66,-1.66,-1.70,-1.58,-1.17,-1.17,-1.18
197.22,0.49,1.66,0.49,1.67,-1.67,-1.70,-1.58,-1.18,-1.18,-1.18
199.19,0.51,1.69,0.50,1.68,-1.68,-1.70,-1.59,-1.18,-1.18,-1.18
201.18,0.51,1.69,0.50,1.70,-1.70,-1.70,-1.60,-1.19,-1.19,-1.18
203.19,0.50,1.73,0.50,1.71,-1.71,-1.70,-1.61,-1.21,-1.21,-1.23
205.23,0.49,1.72,0.49,1.73,-1.72,-1.70,-1.62,-1.24,-1.23,-1.23
207.28,0.49,1.74,0.49,1.74,-1.74,-1.70,-1.62,-1.26,-1.26,-1.25
209.35,0.49,1.76,0.49,1.76,-1.76,-1.70,-1.63,-1.27,-1.27,-1.28
211.44,0.49,1.76,0.49,1.78,-1.78,-1.70,-1.64,-1.29,-1.29,-1.28
213.56,0.49,1.80,0.49,1.79,-1.80,-1.70,-1.65,-1.31,-1.31,-1.32
215.69,0.49,1.80,0.49,1.81,-1.81,-1.70,-1.66,-1.33,-1.33,-1.31
217.85,0.49,1.82,0.49,1.83,-1.82,-1.70,-1.68,-1.34,-1.33,-1.33
220.03,0.49,1.86,0.49,1.84,-1.83,-1.70,-1.69,-1.34,-1.34,-1.37
222.23,0.49,1.85,0.48,1.85,-1.83,-1.70,-1.70,-1.35,-1.35,-1.37
224.45,0.47,1.83,0.47,1.84,-1.83,-1.70,-1.70,-1.36,-1.36,-1.36
226.70,0.45,1.82,0.45,1.82,-1.82,-1.70,-1.71,-1.38,-1.37,-1.37
228.96,0.44,1.80,0.44,1.81,-1.82,-1.70,-1.72,-1.38,-1.38,-1.37
231.25,0.44,1.80,0.43,1.80,-1.81,-1.70,-1.73,-1.37,-1.37,-1.36
233.57,0.44,1.79,0.44,1.79,-1.80,-1.69,-1.73,-1.36,-1.36,-1.35
235.90,0.44,1.78,0.44,1.78,-1.78,-1.69,-1.74,-1.35,-1.34,-1.35
238.26,0.45,1.77,0.44,1.77,-1.77,-1.69,-1.74,-1.33,-1.33,-1.32
240.64,0.45,1.76,0.45,1.77,-1.76,-1.69,-1.75,-1.31,-1.31,-1.32
243.05,0.44,1.75,0.44,1.76,-1.75,-1.69,-1.75,-1.31,-1.31,-1.31
245.48,0.44,1.75,0.42,1.74,-1.73,-1.69,-1.75,-1.29,-1.31,-1.32
247.93,0.40,1.71,0.41,1.72,-1.71,-1.68,-1.75,-1.31,-1.30,-1.31
250.41,0.40,1.67,0.40,1.69,-1.69,-1.68,-1.74,-1.29,-1.29,-1.28
252.92,0.40,1.68,0.38,1.67,-1.67,-1.68,-1.74,-1.27,-1.29,-1.28
255.45,0.36,1.63,0.37,1.64,-1.65,-1.68,-1.73,-1.29,-1.28,-1.28
258.00,0.36,1.64,0.36,1.62,-1.63,-1.67,-1.72,-1.28,-1.27,-1.28
260.58,0.36,1.58,0.36,1.60,-1.62,-1.67,-1.72,-1.26,-1.26,-1.23
263.19,0.38,1.61,0.37,1.60,-1.61,-1.67,-1.70,-1.23,-1.24,-1.23
265.82,0.38,1.60,0.38,1.60,-1.60,-1.66,-1.69,-1.22,-1.22,-1.22
268.48,0.40,1.61,0.39,1.60,-1.59,-1.66,-1.68,-1.19,-1.20,-1.22
271.16,0.40,1.58,0.40,1.59,-1.58,-1.66,-1.67,-1.18,-1.19,-1.18
273.87,0.40,1.57,0.40,1.58,-1.57,-1.65,-1.65,-1.18,-1.17,-1.17
276.61,0.40,1.57,0.40,1.56,-1.56,-1.65,-1.64,-1.16,-1.16,-1.18
279.38,0.40,1.54,0.40,1.55,-1.55,-1.64,-1.62,-1.15,-1.15,-1.14
282.17,0.40,1.53,0.40,1.53,-1.53,-1.64,-1.60,-1.13,-1.13,-1.13
284.99,0.40,1.51,0.40,1.51,-1.51,-1.64,-1.58,-1.11,-1.11,-1.12
287.84,0.40,1.49,0.40,1.49,-1.49,-1.63,-1.57,-1.09,-1.09,-1.09
290.72,0.40,1.49,0.40,1.47,-1.47,-1.63,-1.55,-1.07,-1.07,-1.09
293.63,0.40,1.43,0.40,1.45,-1.45,-1.62,-1.53,-1.05,-1.05,-1.03
296.57,0.40,1.43,0.40,1.42,-1.43,-1.62,-1.51,-1.03,-1.03,-1.04
299.53,0.40,1.40,0.40,1.41,-1.41,-1.61,-1.49,-1.01,-1.01,-1.00
302.53,0.40,1.40,0.39,1.39,-1.40,-1.61,-1.47,-1.00,-1.01,-1.00
305.55,0.40,1.39,0.40,1.37,-1.39,-1.60,-1.46,-0.99,-0.99,-0.99
308.61,0.40,1.34,0.41,1.37,-1.38,-1.60,-1.44,-0.98,-0.97,-0.95
311.69,0.44,1.38,0.43,1.38,-1.37,-1.59,-1.42,-0.94,-0.95,-0.95
314.81,0.44,1.39,0.43,1.38,-1.37,-1.58,-1.41,-0.93,-0.94,-0.95
317.96,0.44,1.39,0.43,1.38,-1.36,-1.58,-1.39,-0.93,-0.93,-0.95
321.14,0.41,1.35,0.42,1.36,-1.36,-1.57,-1.37,-0.95,-0.94,-0.94
324.35,0.40,1.34,0.40,1.34,-1.35,-1.57,-1.36,-0.95,-0.95,-0.95
327.59,0.40,1.34,0.38,1.33,-1.33,-1.56,-1.35,-0.93,-0.95,-0.95
330.87,0.36,1.30,0.37,1.32,-1.31,-1.55,-1.34,-0.96,-0.94,-0.95
334.18,0.36,1.31,0.36,1.31,-1.30,-1.55,-1.32,-0.94,-0.94,-0.95
337.52,0.36,1.31,0.34,1.29,-1.29,-1.54,-1.31,-0.93,-0.95,-0.95
340.90,0.31,1.26,0.32,1.27,-1.28,-1.53,-1.30,-0.97,-0.95,-0.95
344.30,0.31,1.25,0.31,1.26,-1.27,-1.52,-1.30,-0.97,-0.96,-0.94
347.75,0.31,1.25,0.30,1.26,-1.28,-1.52,-1.29,-0.97,-0.97,-0.95
351.23,0.31,1.30,0.31,1.28,-1.28,-1.51,-1.28,-0.98,-0.98,-1.00
354.74,0.31,1.30,0.31,1.30,-1.30,-1.50,-1.28,-0.99,-0.99,-1.00
358.28,0.31,1.31,0.31,1.32,-1.32,-1.49,-1.27,-1.01,-1.01,-1.00
361.87,0.31,1.35,0.31,1.34,-1.34,-1.48,-1.27,-1.04,-1.04,-1.04
365.49,0.31,1.38,0.31,1.37,-1.38,-1.47,-1.27,-1.07,-1.07,-1.07
369.14,0.31,1.40,0.31,1.41,-1.41,-1.47,-1.26,-1.10,-1.10,-1.09
372.83,0.31,1.44,0.31,1.44,-1.44,-1.46,-1.26,-1.14,-1.14,-1.13
376.56,0.31,1.47,0.31,1.47,-1.48,-1.45,-1.26,-1.17,-1.17,-1.16
380.33,0.31,1.51,0.31,1.51,-1.51,-1.44,-1.27,-1.20,-1.20,-1.21
384.13,0.31,1.53,0.31,1.54,-1.54,-1.43,-1.27,-1.23,-1.23,-1.23
387.97,0.31,1.57,0.31,1.57,-1.56,-1.42,-1.27,-1.25,-1.25,-1.27
391.85,0.31,1.58,0.31,1.58,-1.57,-1.41,-1.27,-1.27,-1.26,-1.28
395.77,0.31,1.59,0.30,1.59,-1.58,-1.40,-1.28,-1.27,-1.27,-1.28
399.73,0.31,1.59,0.29,1.58,-1.57,-1.39,-1.28,-1.26,-1.28,-1.28
403.72,0.27,1.55,0.28,1.56,-1.56,-1.38,-1.29,-1.29,-1.28,-1.28
407.76,0.27,1.54,0.27,1.53,-1.53,-1.36,-1.30,-1.26,-1.26,-1.27
411.84,0.27,1.50,0.26,1.49,-1.50,-1.35,-1.30,-1.23,-1.24,-1.23
415.96,0.27,1.45,0.27,1.46,-1.46,-1.34,-1.31,-1.19,-1.19,-1.18
420.12,0.27,1.42,0.27,1.41,-1.42,-1.33,-1.31,-1.15,-1.15,-1.15
424.32,0.27,1.37,0.27,1.37,-1.37,-1.32,-1.32,-1.10,-1.10,-1.10
428.56,0.27,1.33,0.27,1.32,-1.32,-1.31,-1.33,-1.05,-1.05,-1.06
432.85,0.27,1.27,0.26,1.27,-1.27,-1.29,-1.33,-1.00,-1.00,-1.00
437.18,0.26,1.21,0.26,1.22,-1.21,-1.28,-1.34,-0.96,-0.96,-0.96
441.55,0.25,1.17,0.25,1.16,-1.16,-1.27,-1.35,-0.92,-0.92,-0.93
445.96,0.25,1.11,0.24,1.11,-1.12,-1.26,-1.35,-0.87,-0.88,-0.87
