frequency,raw,error,smoothed,error_smoothed,equalization,parametric_eq,fixed_band_eq,equalized_raw,equalized_smoothed,target
20.00,-3.61,-1.71,-3.62,-1.70,1.68,1.61,0.59,-1.93,-1.94,-1.91
20.20,-3.58,-1.69,-3.58,-1.69,1.69,1.62,0.61,-1.89,-1.88,-1.90
20.40,-3.54,-1.70,-3.53,-1.69,1.70,1.63,0.63,-1.84,-1.83,-1.85
20.61,-3.48,-1.69,-3.49,-1.69,1.71,1.64,0.64,-1.78,-1.78,-1.79
20.81,-3.43,-1.69,-3.44,-1.71,1.71,1.65,0.66,-1.72,-1.72,-1.74
21.02,-3.39,-1.71,-3.39,-1.71,1.72,1.66,0.68,-1.67,-1.67,-1.68
21.23,-3.35,-1.74,-3.35,-1.73,1.72,1.66,0.71,-1.63,-1.63,-1.61
21.44,-3.30,-1.72,-3.31,-1.74,1.72,1.67,0.73,-1.58,-1.58,-1.58
21.66,-3.26,-1.74,-3.26,-1.74,1.73,1.68,0.75,-1.54,-1.54,-1.52
21.87,-3.21,-1.74,-3.21,-1.73,1.72,1.68,0.77,-1.49,-1.48,-1.47
22.09,-3.15,-1.71,-3.15,-1.72,1.72,1.69,0.80,-1.43,-1.43,-1.44
22.31,-3.09,-1.71,-3.10,-1.71,1.72,1.70,0.82,-1.37,-1.38,-1.38
22.54,-3.04,-1.69,-3.05,-1.70,1.72,1.70,0.84,-1.33,-1.33,-1.35
22.76,-3.01,-1.71,-3.01,-1.70,1.71,1.70,0.87,-1.30,-1.29,-1.30
22.99,-2.96,-1.70,-2.97,-1.71,1.71,1.71,0.90,-1.25,-1.25,-1.26
23.22,-2.93,-1.72,-2.94,-1.72,1.72,1.71,0.92,-1.22,-1.22,-1.21
23.45,-2.90,-1.72,-2.90,-1.73,1.72,1.71,0.95,-1.18,-1.18,-1.18
23.69,-2.87,-1.74,-2.87,-1.73,1.73,1.72,0.98,-1.15,-1.14,-1.13
23.92,-2.83,-1.74,-2.83,-1.73,1.73,1.72,1.01,-1.10,-1.10,-1.09
24.16,-2.78,-1.72,-2.79,-1.74,1.73,1.72,1.03,-1.05,-1.06,-1.06
24.40,-2.75,-1.73,-2.75,-1.73,1.73,1.72,1.06,-1.02,-1.02,-1.02
24.65,-2.72,-1.74,-2.72,-1.73,1.72,1.72,1.09,-1.00,-1.00,-0.99
24.89,-2.67,-1.71,-2.68,-1.72,1.71,1.71,1.12,-0.97,-0.97,-0.96
25.14,-2.63,-1.72,-2.63,-1.70,1.69,1.71,1.15,-0.94,-0.93,-0.92
25.39,-2.57,-1.67,-2.58,-1.67,1.68,1.71,1.18,-0.90,-0.90,-0.91
25.65,-2.52,-1.65,-2.53,-1.65,1.66,1.70,1.21,-0.86,-0.87,-0.88
25.91,-2.50,-1.64,-2.49,-1.63,1.65,1.70,1.24,-0.85,-0.84,-0.87
26.16,-2.46,-1.64,-2.47,-1.63,1.64,1.70,1.28,-0.82,-0.83,-0.83
26.43,-2.43,-1.63,-2.44,-1.63,1.63,1.69,1.31,-0.80,-0.80,-0.81
26.69,-2.42,-1.64,-2.41,-1.63,1.63,1.68,1.34,-0.79,-0.78,-0.78
26.96,-2.37,-1.63,-2.39,-1.63,1.64,1.68,1.36,-0.74,-0.75,-0.74
27.23,-2.37,-1.63,-2.37,-1.64,1.64,1.67,1.39,-0.73,-0.72,-0.74
27.50,-2.33,-1.64,-2.34,-1.64,1.65,1.66,1.42,-0.69,-0.69,-0.69
27.77,-2.33,-1.67,-2.33,-1.66,1.65,1.65,1.45,-0.68,-0.67,-0.66
28.05,-2.29,-1.64,-2.30,-1.66,1.65,1.65,1.47,-0.64,-0.65,-0.65
28.33,-2.28,-1.67,-2.28,-1.65,1.65,1.64,1.50,-0.63,-0.63,-0.61
28.62,-2.24,-1.64,-2.24,-1.64,1.64,1.63,1.52,-0.60,-0.60,-0.60
28.90,-2.20,-1.61,-2.21,-1.64,1.63,1.62,1.54,-0.57,-0.59,-0.59
29.19,-2.18,-1.64,-2.18,-1.61,1.61,1.60,1.56,-0.57,-0.57,-0.55
29.48,-2.14,-1.60,-2.14,-1.59,1.59,1.59,1.58,-0.56,-0.55,-0.55
29.78,-2.09,-1.55,-2.10,-1.57,1.56,1.58,1.60,-0.53,-0.54,-0.55
30.08,-2.05,-1.54,-2.05,-1.53,1.53,1.57,1.61,-0.52,-0.52,-0.51
30.38,-2.00,-1.49,-2.01,-1.49,1.50,1.56,1.63,-0.51,-0.51,-0.51
30.68,-1.96,-1.45,-1.96,-1.46,1.47,1.54,1.64,-0.50,-0.49,-0.51
30.99,-1.91,-1.43,-1.92,-1.43,1.43,1.53,1.64,-0.48,-0.48,-0.48
31.30,-1.87,-1.41,-1.87,-1.40,1.40,1.52,1.65,-0.47,-0.47,-0.46
31.61,-1.83,-1.37,-1.83,-1.37,1.37,1.50,1.65,-0.46,-0.46,-0.46
31.93,-1.80,-1.35,-1.81,-1.35,1.34,1.49,1.66,-0.46,-0.46,-0.46
32.24,-1.77,-1.32,-1.78,-1.32,1.32,1.47,1.65,-0.45,-0.46,-0.46
32.57,-1.76,-1.30,-1.75,-1.30,1.30,1.46,1.65,-0.46,-0.45,-0.46
32.89,-1.72,-1.27,-1.72,-1.28,1.28,1.44,1.65,-0.44,-0.44,-0.45
33.22,-1.68,-1.27,-1.69,-1.26,1.27,1.43,1.64,-0.41,-0.42,-0.41
33.55,-1.65,-1.24,-1.66,-1.25,1.26,1.41,1.63,-0.39,-0.40,-0.41
33.89,-1.64,-1.23,-1.64,-1.24,1.25,1.39,1.62,-0.39,-0.39,-0.42
34.23,-1.64,-1.28,-1.63,-1.25,1.24,1.38,1.61,-0.40,-0.38,-0.37
34.57,-1.59,-1.23,-1.60,-1.25,1.24,1.36,1.59,-0.36,-0.37,-0.37
34.92,-1.57,-1.25,-1.58,-1.24,1.23,1.34,1.58,-0.35,-0.35,-0.32
35.27,-1.54,-1.22,-1.54,-1.22,1.22,1.33,1.56,-0.33,-0.32,-0.32
35.62,-1.51,-1.20,-1.51,-1.21,1.21,1.31,1.54,-0.31,-0.30,-0.31
35.97,-1.46,-1.20,-1.47,-1.19,1.19,1.29,1.53,-0.27,-0.28,-0.27
36.33,-1.43,-1.16,-1.44,-1.17,1.17,1.28,1.51,-0.26,-0.27,-0.27
36.70,-1.42,-1.15,-1.41,-1.15,1.15,1.26,1.49,-0.27,-0.26,-0.27
37.06,-1.38,-1.12,-1.39,-1.14,1.13,1.24,1.47,-0.25,-0.26,-0.26
37.43,-1.36,-1.14,-1.36,-1.12,1.11,1.23,1.45,-0.25,-0.25,-0.23
37.81,-1.33,-1.11,-1.33,-1.10,1.10,1.21,1.43,-0.24,-0.24,-0.23
38.19,-1.30,-1.07,-1.31,-1.08,1.08,1.19,1.41,-0.22,-0.23,-0.23
38.57,-1.27,-1.04,-1.28,-1.05,1.07,1.17,1.39,-0.21,-0.21,-0.23
38.95,-1.25,-1.04,-1.25,-1.04,1.05,1.16,1.37,-0.20,-0.20,-0.22
39.34,-1.22,-1.04,-1.23,-1.04,1.04,1.14,1.35,-0.19,-0.19,-0.18
39.74,-1.20,-1.02,-1.21,-1.03,1.02,1.12,1.33,-0.18,-0.19,-0.18
40.14,-1.20,-1.03,-1.19,-1.02,1.00,1.10,1.31,-0.20,-0.19,-0.18
40.54,-1.16,-0.98,-1.18,-1.00,0.99,1.09,1.30,-0.18,-0.19,-0.18
40.94,-1.16,-0.98,-1.16,-0.97,0.97,1.07,1.28,-0.19,-0.19,-0.18
41.35,-1.15,-0.95,-1.15,-0.94,0.95,1.05,1.26,-0.21,-0.20,-0.21
41.76,-1.12,-0.89,-1.13,-0.91,0.92,1.03,1.25,-0.20,-0.22,-0.23
42.18,-1.12,-0.89,-1.12,-0.89,0.89,1.02,1.23,-0.24,-0.23,-0.23
42.60,-1.09,-0.87,-1.10,-0.87,0.85,1.00,1.22,-0.24,-0.24,-0.23
43.03,-1.07,-0.84,-1.07,-0.83,0.82,0.98,1.20,-0.26,-0.25,-0.23
43.46,-1.04,-0.80,-1.04,-0.79,0.78,0.97,1.19,-0.26,-0.26,-0.25
43.90,-0.99,-0.72,-1.01,-0.75,0.75,0.95,1.18,-0.24,-0.26,-0.27
44.33,-0.99,-0.73,-0.98,-0.71,0.72,0.93,1.17,-0.27,-0.25,-0.27
44.78,-0.94,-0.67,-0.96,-0.69,0.70,0.92,1.16,-0.25,-0.26,-0.27
45.23,-0.94,-0.68,-0.94,-0.68,0.68,0.90,1.15,-0.27,-0.27,-0.27
45.68,-0.94,-0.67,-0.93,-0.65,0.66,0.88,1.14,-0.28,-0.27,-0.27
46.13,-0.90,-0.64,-0.92,-0.65,0.65,0.87,1.14,-0.25,-0.27,-0.27
46.60,-0.90,-0.63,-0.91,-0.64,0.65,0.85,1.13,-0.26,-0.26,-0.27
47.06,-0.90,-0.66,-0.90,-0.65,0.65,0.83,1.12,-0.26,-0.25,-0.25
47.53,-0.90,-0.67,-0.90,-0.67,0.65,0.82,1.12,-0.25,-0.25,-0.23
48.01,-0.90,-0.67,-0.90,-0.67,0.66,0.80,1.11,-0.24,-0.24,-0.23
48.49,-0.90,-0.68,-0.90,-0.67,0.67,0.79,1.11,-0.23,-0.23,-0.23
48.97,-0.90,-0.67,-0.91,-0.68,0.69,0.77,1.11,-0.21,-0.22,-0.23
49.46,-0.93,-0.70,-0.93,-0.70,0.71,0.76,1.11,-0.22,-0.22,-0.23
49.96,-0.96,-0.73,-0.96,-0.73,0.74,0.74,1.11,-0.23,-0.22,-0.23
50.46,-0.99,-0.77,-1.00,-0.77,0.77,0.73,1.10,-0.23,-0.23,-0.23
50.96,-1.03,-0.81,-1.03,-0.81,0.80,0.71,1.10,-0.24,-0.23,-0.22
51.47,-1.07,-0.84,-1.07,-0.84,0.84,0.70,1.10,-0.24,-0.23,-0.23
51.99,-1.10,-0.87,-1.11,-0.87,0.88,0.68,1.10,-0.22,-0.22,-0.23
52.51,-1.14,-0.91,-1.14,-0.91,0.92,0.67,1.10,-0.22,-0.22,-0.23
53.03,-1.18,-0.96,-1.19,-0.96,0.97,0.65,1.11,-0.22,-0.22,-0.23
53.56,-1.24,-1.02,-1.24,-1.02,1.01,0.64,1.11,-0.24,-0.24,-0.23
54.10,-1.30,-1.08,-1.30,-1.06,1.05,0.62,1.11,-0.26,-0.25,-0.23
54.64,-1.34,-1.09,-1.35,-1.10,1.08,0.61,1.11,-0.26,-0.27,-0.26
55.18,-1.38,-1.12,-1.39,-1.12,1.12,0.60,1.11,-0.27,-0.27,-0.27
55.74,-1.42,-1.15,-1.41,-1.14,1.15,0.58,1.11,-0.28,-0.26,-0.27
56.29,-1.42,-1.16,-1.43,-1.17,1.18,0.57,1.11,-0.25,-0.25,-0.26
56.86,-1.42,-1.19,-1.44,-1.19,1.20,0.56,1.10,-0.22,-0.24,-0.23
57.42,-1.46,-1.23,-1.45,-1.22,1.23,0.54,1.10,-0.24,-0.22,-0.23
58.00,-1.46,-1.24,-1.46,-1.25,1.25,0.53,1.10,-0.21,-0.21,-0.23
58.58,-1.46,-1.28,-1.47,-1.27,1.27,0.52,1.09,-0.19,-0.20,-0.18
59.16,-1.46,-1.28,-1.46,-1.30,1.29,0.50,1.09,-0.17,-0.17,-0.18
59.76,-1.46,-1.34,-1.46,-1.32,1.32,0.49,1.08,-0.15,-0.15,-0.13
60.35,-1.46,-1.33,-1.46,-1.34,1.34,0.48,1.08,-0.13,-0.13,-0.13
60.96,-1.46,-1.37,-1.46,-1.36,1.36,0.47,1.07,-0.10,-0.10,-0.09
61.57,-1.46,-1.37,-1.46,-1.37,1.38,0.45,1.06,-0.08,-0.08,-0.09
62.18,-1.46,-1.37,-1.46,-1.39,1.41,0.44,1.05,-0.06,-0.06,-0.09
62.80,-1.46,-1.42,-1.48,-1.42,1.43,0.43,1.03,-0.04,-0.05,-0.04
63.43,-1.50,-1.47,-1.49,-1.45,1.45,0.42,1.02,-0.06,-0.05,-0.04
64.07,-1.51,-1.47,-1.51,-1.47,1.47,0.41,1.01,-0.05,-0.04,-0.04
64.71,-1.51,-1.47,-1.52,-1.48,1.48,0.39,0.99,-0.03,-0.04,-0.04
65.35,-1.51,-1.47,-1.52,-1.49,1.49,0.38,0.97,-0.02,-0.03,-0.04
66.01,-1.53,-1.50,-1.53,-1.49,1.48,0.37,0.95,-0.05,-0.04,-0.04
66.67,-1.53,-1.50,-1.53,-1.48,1.46,0.36,0.93,-0.07,-0.07,-0.04
67.33,-1.51,-1.43,-1.52,-1.45,1.43,0.35,0.91,-0.09,-0.09,-0.09
68.01,-1.49,-1.41,-1.48,-1.40,1.38,0.34,0.89,-0.12,-0.11,-0.09
68.69,-1.42,-1.33,-1.43,-1.32,1.31,0.33,0.87,-0.12,-0.12,-0.10
69.37,-1.36,-1.23,-1.36,-1.24,1.23,0.31,0.84,-0.13,-0.13,-0.13
70.07,-1.26,-1.13,-1.27,-1.14,1.14,0.30,0.82,-0.12,-0.13,-0.13
70.77,-1.18,-1.04,-1.19,-1.04,1.05,0.29,0.79,-0.13,-0.14,-0.14
71.48,-1.10,-0.95,-1.09,-0.94,0.95,0.28,0.76,-0.15,-0.14,-0.16
72.19,-0.99,-0.83,-1.00,-0.85,0.86,0.27,0.74,-0.13,-0.14,-0.16
72.91,-0.90,-0.77,-0.91,-0.76,0.77,0.26,0.71,-0.13,-0.14,-0.13
73.64,-0.83,-0.70,-0.82,-0.69,0.69,0.25,0.68,-0.15,-0.14,-0.13
74.38,-0.73,-0.60,-0.74,-0.62,0.61,0.24,0.65,-0.12,-0.13,-0.13
75.12,-0.65,-0.56,-0.65,-0.55,0.55,0.23,0.62,-0.11,-0.11,-0.09
75.87,-0.57,-0.49,-0.57,-0.49,0.50,0.22,0.59,-0.07,-0.07,-0.09
76.63,-0.49,-0.45,-0.49,-0.44,0.46,0.21,0.56,-0.03,-0.03,-0.04
77.40,-0.42,-0.39,-0.43,-0.40,0.44,0.20,0.54,0.01,0.01,-0.03
78.17,-0.38,-0.39,-0.39,-0.40,0.42,0.18,0.51,0.03,0.02,0.01
78.95,-0.38,-0.39,-0.38,-0.41,0.40,0.17,0.48,0.02,0.02,0.01
79.74,-0.38,-0.44,-0.38,-0.41,0.39,0.16,0.45,0.00,0.01,0.05
80.54,-0.36,-0.41,-0.36,-0.41,0.38,0.15,0.42,0.01,0.02,0.05
81.35,-0.31,-0.36,-0.31,-0.39,0.36,0.14,0.39,0.05,0.05,0.05
82.16,-0.26,-0.36,-0.26,-0.34,0.34,0.13,0.36,0.08,0.08,0.10
82.98,-0.20,-0.30,-0.21,-0.31,0.32,0.12,0.33,0.11,0.11,0.10
83.81,-0.17,-0.27,-0.17,-0.28,0.29,0.11,0.30,0.11,0.11,0.10
84.65,-0.14,-0.25,-0.14,-0.24,0.25,0.10,0.27,0.11,0.11,0.10
85.50,-0.11,-0.21,-0.11,-0.21,0.21,0.09,0.24,0.10,0.10,0.10
86.35,-0.08,-0.18,-0.09,-0.19,0.18,0.08,0.21,0.09,0.09,0.09
87.22,-0.05,-0.15,-0.05,-0.15,0.14,0.07,0.18,0.09,0.09,0.10
88.09,-0.03,-0.13,-0.03,-0.11,0.11,0.06,0.15,0.07,0.08,0.10
88.97,0.01,-0.04,-0.01,-0.07,0.07,0.05,0.12,0.08,0.07,0.05
89.86,0.01,-0.04,0.02,-0.03,0.04,0.04,0.09,0.04,0.06,0.04
90.76,0.05,-0.00,0.04,-0.00,0.00,0.03,0.06,0.05,0.05,0.05
91.66,0.07,0.01,0.06,0.02,-0.03,0.02,0.04,0.04,0.04,0.05
92.58,0.10,0.05,0.09,0.06,-0.05,0.01,0.01,0.04,0.04,0.04
93.51,0.10,0.09,0.11,0.09,-0.08,-0.00,-0.02,0.02,0.03,0.01
94.44,0.14,0.13,0.13,0.11,-0.10,-0.01,-0.05,0.04,0.03,0.01
95.39,0.14,0.12,0.13,0.12,-0.12,-0.02,-0.08,0.02,0.02,0.01
96.34,0.14,0.12,0.14,0.13,-0.14,-0.03,-0.11,0.00,0.00,0.01
97.30,0.14,0.13,0.13,0.14,-0.15,-0.05,-0.13,-0.01,-0.02,0.01
98.28,0.14,0.17,0.14,0.16,-0.17,-0.06,-0.16,-0.03,-0.03,-0.03
99.26,0.14,0.18,0.15,0.19,-0.18,-0.07,-0.19,-0.05,-0.03,-0.04
100.25,0.18,0.22,0.16,0.20,-0.20,-0.08,-0.22,-0.02,-0.04,-0.04
101.25,0.18,0.22,0.17,0.21,-0.22,-0.09,-0.24,-0.04,-0.05,-0.04
102.27,0.18,0.22,0.19,0.24,-0.24,-0.10,-0.27,-0.07,-0.05,-0.04
103.29,0.20,0.26,0.20,0.26,-0.26,-0.11,-0.30,-0.07,-0.06,-0.06
104.32,0.23,0.31,0.21,0.29,-0.28,-0.12,-0.32,-0.06,-0.07,-0.09
105.37,0.23,0.31,0.23,0.32,-0.30,-0.13,-0.35,-0.08,-0.08,-0.09
106.42,0.23,0.31,0.24,0.33,-0.33,-0.15,-0.38,-0.10,-0.08,-0.09
107.48,0.27,0.35,0.25,0.33,-0.35,-0.16,-0.40,-0.08,-0.10,-0.09
108.56,0.27,0.35,0.27,0.36,-0.37,-0.17,-0.42,-0.10,-0.10,-0.09
109.64,0.27,0.36,0.28,0.39,-0.38,-0.18,-0.45,-0.12,-0.10,-0.10
110.74,0.31,0.43,0.29,0.41,-0.40,-0.19,-0.47,-0.09,-0.11,-0.12
111.85,0.31,0.44,0.30,0.43,-0.42,-0.21,-0.49,-0.11,-0.12,-0.13
112.97,0.31,0.44,0.31,0.44,-0.44,-0.22,-0.51,-0.13,-0.13,-0.13
114.10,0.31,0.44,0.31,0.44,-0.46,-0.23,-0.53,-0.15,-0.15,-0.13
115.24,0.33,0.45,0.33,0.46,-0.48,-0.24,-0.55,-0.15,-0.15,-0.13
116.39,0.36,0.48,0.35,0.49,-0.50,-0.25,-0.57,-0.14,-0.15,-0.13
117.55,0.36,0.53,0.36,0.52,-0.51,-0.27,-0.59,-0.15,-0.15,-0.17
118.73,0.36,0.54,0.36,0.54,-0.52,-0.28,-0.61,-0.16,-0.16,-0.18
119.92,0.36,0.54,0.36,0.55,-0.52,-0.29,-0.62,-0.17,-0.16,-0.18
121.12,0.36,0.54,0.35,0.53,-0.53,-0.31,-0.63,-0.17,-0.18,-0.19
122.33,0.36,0.54,0.34,0.52,-0.53,-0.32,-0.65,-0.17,-0.19,-0.18
123.55,0.31,0.48,0.32,0.52,-0.53,-0.33,-0.66,-0.22,-0.20,-0.18
124.79,0.31,0.52,0.31,0.52,-0.52,-0.35,-0.67,-0.21,-0.21,-0.21
126.03,0.31,0.53,0.29,0.52,-0.52,-0.36,-0.68,-0.21,-0.22,-0.23
127.29,0.29,0.52,0.28,0.51,-0.51,-0.37,-0.68,-0.23,-0.23,-0.23
128.57,0.27,0.49,0.28,0.51,-0.51,-0.39,-0.69,-0.25,-0.24,-0.23
129.85,0.27,0.50,0.28,0.51,-0.52,-0.40,-0.69,-0.25,-0.24,-0.23
131.15,0.31,0.54,0.29,0.52,-0.52,-0.42,-0.70,-0.21,-0.23,-0.23
132.46,0.31,0.53,0.31,0.54,-0.52,-0.43,-0.70,-0.22,-0.21,-0.23
133.79,0.31,0.53,0.31,0.54,-0.53,-0.45,-0.70,-0.22,-0.22,-0.23
135.12,0.31,0.56,0.29,0.53,-0.53,-0.46,-0.70,-0.23,-0.25,-0.25
136.48,0.27,0.52,0.28,0.54,-0.54,-0.48,-0.70,-0.28,-0.26,-0.25
137.84,0.27,0.54,0.28,0.54,-0.55,-0.49,-0.70,-0.29,-0.27,-0.27
139.22,0.31,0.58,0.29,0.56,-0.56,-0.50,-0.70,-0.26,-0.28,-0.27
140.61,0.31,0.58,0.31,0.58,-0.58,-0.52,-0.70,-0.27,-0.27,-0.27
142.02,0.34,0.60,0.33,0.60,-0.60,-0.53,-0.69,-0.27,-0.27,-0.27
143.44,0.36,0.62,0.35,0.62,-0.63,-0.55,-0.69,-0.27,-0.27,-0.27
144.87,0.37,0.64,0.37,0.64,-0.65,-0.56,-0.68,-0.29,-0.28,-0.27
146.32,0.40,0.67,0.39,0.68,-0.68,-0.58,-0.68,-0.28,-0.29,-0.27
147.78,0.40,0.71,0.41,0.71,-0.70,-0.59,-0.67,-0.31,-0.29,-0.32
149.26,0.44,0.76,0.43,0.74,-0.72,-0.61,-0.67,-0.29,-0.30,-0.32
150.75,0.44,0.75,0.43,0.76,-0.74,-0.62,-0.66,-0.30,-0.30,-0.32
152.26,0.44,0.76,0.44,0.76,-0.75,-0.64,-0.66,-0.32,-0.31,-0.32
153.78,0.44,0.76,0.44,0.76,-0.76,-0.65,-0.65,-0.33,-0.33,-0.32
155.32,0.44,0.75,0.44,0.76,-0.77,-0.67,-0.65,-0.34,-0.34,-0.32
156.88,0.44,0.78,0.43,0.77,-0.78,-0.68,-0.64,-0.34,-0.34,-0.34
158.44,0.44,0.78,0.44,0.78,-0.79,-0.69,-0.64,-0.35,-0.35,-0.34
160.03,0.45,0.79,0.45,0.80,-0.79,-0.71,-0.64,-0.35,-0.34,-0.34
161.63,0.47,0.81,0.46,0.80,-0.80,-0.72,-0.63,-0.34,-0.35,-0.34
163.24,0.47,0.81,0.47,0.81,-0.81,-0.73,-0.63,-0.35,-0.35,-0.35
164.88,0.47,0.81,0.47,0.82,-0.82,-0.75,-0.62,-0.36,-0.35,-0.34
166.53,0.47,0.84,0.47,0.83,-0.82,-0.76,-0.62,-0.36,-0.36,-0.37
168.19,0.47,0.84,0.47,0.84,-0.83,-0.77,-0.62,-0.36,-0.36,-0.37
169.87,0.47,0.84,0.46,0.84,-0.82,-0.78,-0.62,-0.36,-0.36,-0.37
171.57,0.47,0.83,0.46,0.83,-0.82,-0.79,-0.62,-0.36,-0.37,-0.37
173.29,0.44,0.80,0.45,0.81,-0.82,-0.80,-0.61,-0.39,-0.38,-0.37
175.02,0.44,0.81,0.44,0.81,-0.82,-0.81,-0.61,-0.39,-0.39,-0.37
176.77,0.44,0.80,0.44,0.81,-0.82,-0.82,-0.61,-0.39,-0.39,-0.37
178.54,0.45,0.82,0.45,0.82,-0.83,-0.83,-0.62,-0.38,-0.38,-0.37
180.32,0.47,0.84,0.47,0.84,-0.83,-0.84,-0.62,-0.37,-0.37,-0.37
182.13,0.49,0.86,0.48,0.85,-0.84,-0.84,-0.62,-0.35,-0.36,-0.37
183.95,0.49,0.85,0.49,0.86,-0.85,-0.85,-0.62,-0.36,-0.36,-0.37
185.79,0.49,0.86,0.49,0.86,-0.85,-0.86,-0.62,-0.37,-0.37,-0.37
187.65,0.49,0.86,0.49,0.86,-0.86,-0.86,-0.63,-0.37,-0.37,-0.38
189.52,0.49,0.85,0.49,0.86,-0.86,-0.87,-0.63,-0.38,-0.38,-0.37
191.42,0.49,0.86,0.49,0.86,-0.87,-0.87,-0.63,-0.38,-0.38,-0.37
193.33,0.49,0.86,0.48,0.86,-0.86,-0.87,-0.64,-0.38,-0.38,-0.37
195.27,0.49,0.86,0.49,0.86,-0.86,-0.87,-0.64,-0.37,-0.37,-0.37
197.22,0.49,0.86,0.49,0.87,-0.86,-0.87,-0.65,-0.37,-0.36,-0.38
199.19,0.51,0.87,0.50,0.86,-0.85,-0.87,-0.65,-0.34,-0.35,-0.37
201.18,0.51,0.85,0.50,0.85,-0.84,-0.87,-0.66,-0.34,-0.34,-0.35
203.19,0.50,0.83,0.50,0.83,-0.84,-0.87,-0.66,-0.34,-0.34,-0.34
205.23,0.49,0.80,0.49,0.81,-0.83,-0.87,-0.67,-0.34,-0.34,-0.32
207.28,0.49,0.80,0.49,0.80,-0.82,-0.86,-0.68,-0.33,-0.34,-0.32
209.35,0.49,0.80,0.49,0.80,-0.81,-0.86,-0.68,-0.33,-0.33,-0.32
211.44,0.49,0.81,0.49,0.81,-0.80,-0.86,-0.69,-0.32,-0.32,-0.32
213.56,0.49,0.81,0.49,0.81,-0.80,-0.85,-0.70,-0.31,-0.31,-0.32
215.69,0.49,0.81,0.49,0.80,-0.79,-0.84,-0.70,-0.30,-0.30,-0.32
217.85,0.49,0.78,0.49,0.78,-0.78,-0.84,-0.71,-0.29,-0.29,-0.29
220.03,0.49,0.75,0.49,0.77,-0.77,-0.83,-0.72,-0.28,-0.28,-0.27
222.23,0.49,0.76,0.48,0.75,-0.75,-0.82,-0.72,-0.27,-0.27,-0.27
224.45,0.47,0.74,0.47,0.74,-0.74,-0.81,-0.73,-0.27,-0.27,-0.27
226.70,0.45,0.72,0.45,0.72,-0.72,-0.80,-0.73,-0.27,-0.27,-0.27
228.96,0.44,0.71,0.44,0.70,-0.70,-0.79,-0.74,-0.27,-0.27,-0.28
231.25,0.44,0.67,0.43,0.68,-0.69,-0.78,-0.74,-0.26,-0.26,-0.23
233.57,0.44,0.66,0.44,0.67,-0.68,-0.77,-0.74,-0.24,-0.24,-0.23
235.90,0.44,0.67,0.44,0.66,-0.66,-0.76,-0.74,-0.23,-0.22,-0.23
238.26,0.45,0.67,0.44,0.66,-0.65,-0.75,-0.74,-0.20,-0.20,-0.22
240.64,0.45,0.63,0.45,0.64,-0.63,-0.74,-0.75,-0.18,-0.18,-0.19
243.05,0.44,0.62,0.44,0.62,-0.61,-0.73,-0.75,-0.17,-0.17,-0.18
245.48,0.44,0.61,0.42,0.59,-0.59,-0.71,-0.74,-0.15,-0.17,-0.18
247.93,0.40,0.55,0.41,0.57,-0.56,-0.70,-0.74,-0.17,-0.15,-0.15
250.41,0.40,0.53,0.40,0.54,-0.54,-0.69,-0.74,-0.14,-0.14,-0.14
252.92,0.40,0.53,0.38,0.51,-0.52,-0.67,-0.73,-0.12,-0.14,-0.13
255.45,0.36,0.49,0.37,0.50,-0.50,-0.66,-0.73,-0.14,-0.13,-0.13
258.00,0.36,0.48,0.36,0.48,-0.49,-0.65,-0.72,-0.13,-0.13,-0.13
260.58,0.36,0.45,0.36,0.46,-0.48,-0.63,-0.71,-0.12,-0.12,-0.09
263.19,0.38,0.46,0.37,0.46,-0.47,-0.62,-0.71,-0.10,-0.10,-0.09
265.82,0.38,0.47,0.38,0.47,-0.47,-0.61,-0.70,-0.09,-0.09,-0.09
268.48,0.40,0.49,0.39,0.48,-0.47,-0.59,-0.69,-0.07,-0.08,-0.09
271.16,0.40,0.48,0.40,0.49,-0.47,-0.58,-0.68,-0.07,-0.07,-0.09
273.87,0.40,0.49,0.40,0.48,-0.46,-0.57,-0.67,-0.07,-0.06,-0.09
276.61,0.40,0.46,0.40,0.46,-0.46,-0.55,-0.65,-0.06,-0.06,-0.06
279.38,0.40,0.43,0.40,0.45,-0.46,-0.54,-0.64,-0.06,-0.06,-0.04
282.17,0.40,0.44,0.40,0.43,-0.45,-0.52,-0.63,-0.05,-0.05,-0.04
284.99,0.40,0.44,0.40,0.43,-0.44,-0.51,-0.61,-0.05,-0.05,-0.04
287.84,0.40,0.43,0.40,0.44,-0.44,-0.50,-0.60,-0.04,-0.04,-0.04
290.72,0.40,0.44,0.40,0.44,-0.43,-0.48,-0.59,-0.04,-0.04,-0.04
293.63,0.40,0.44,0.40,0.44,-0.43,-0.47,-0.57,-0.03,-0.03,-0.04
296.57,0.40,0.44,0.40,0.44,-0.43,-0.46,-0.56,-0.03,-0.03,-0.04
299.53,0.40,0.43,0.40,0.43,-0.42,-0.45,-0.54,-0.03,-0.03,-0.04
302.53,0.40,0.41,0.39,0.41,-0.42,-0.43,-0.53,-0.03,-0.03,-0.02
305.55,0.40,0.39,0.40,0.40,-0.42,-0.42,-0.51,-0.02,-0.02,0.01
308.61,0.40,0.39,0.41,0.41,-0.41,-0.41,-0.50,-0.02,-0.00,0.01
311.69,0.44,0.43,0.43,0.41,-0.41,-0.39,-0.48,0.03,0.02,0.00
314.81,0.44,0.42,0.43,0.41,-0.40,-0.38,-0.47,0.04,0.04,0.01
317.96,0.44,0.39,0.43,0.39,-0.38,-0.37,-0.45,0.05,0.05,0.05
321.14,0.41,0.36,0.42,0.37,-0.37,-0.36,-0.44,0.04,0.05,0.05
324.35,0.40,0.35,0.40,0.35,-0.35,-0.35,-0.42,0.05,0.05,0.05
327.59,0.40,0.35,0.38,0.32,-0.32,-0.33,-0.41,0.07,0.06,0.05
330.87,0.36,0.27,0.37,0.30,-0.29,-0.32,-0.39,0.06,0.08,0.08
334.18,0.36,0.25,0.36,0.27,-0.26,-0.31,-0.38,0.09,0.09,0.10
337.52,0.36,0.25,0.34,0.23,-0.23,-0.30,-0.36,0.12,0.10,0.10
340.90,0.31,0.21,0.32,0.21,-0.21,-0.29,-0.35,0.10,0.11,0.10
344.30,0.31,0.17,0.31,0.18,-0.19,-0.28,-0.34,0.12,0.12,0.14
347.75,0.31,0.16,0.30,0.16,-0.17,-0.27,-0.32,0.13,0.13,0.15
351.23,0.31,0.16,0.31,0.16,-0.16,-0.26,-0.31,0.14,0.14,0.15
354.74,0.31,0.16,0.31,0.16,-0.15,-0.25,-0.30,0.15,0.15,0.14
358.28,0.31,0.15,0.31,0.16,-0.15,-0.23,-0.29,0.16,0.16,0.15
361.87,0.31,0.15,0.31,0.15,-0.15,-0.22,-0.27,0.16,0.16,0.15
365.49,0.31,0.15,0.31,0.15,-0.15,-0.21,-0.26,0.16,0.16,0.15
369.14,0.31,0.16,0.31,0.15,-0.15,-0.20,-0.25,0.15,0.15,0.15
372.83,0.31,0.16,0.31,0.16,-0.16,-0.19,-0.24,0.14,0.14,0.15
376.56,0.31,0.16,0.31,0.17,-0.18,-0.18,-0.23,0.13,0.13,0.15
380.33,0.31,0.19,0.31,0.18,-0.19,-0.17,-0.22,0.11,0.11,0.12
384.13,0.31,0.21,0.31,0.21,-0.22,-0.16,-0.21,0.09,0.09,0.10
387.97,0.31,0.25,0.31,0.24,-0.24,-0.15,-0.20,0.06,0.06,0.06
391.85,0.31,0.28,0.31,0.28,-0.27,-0.14,-0.19,0.03,0.04,0.02
395.77,0.31,0.30,0.30,0.32,-0.31,-0.13,-0.17,-0.00,-0.00,0.00
399.73,0.31,0.36,0.29,0.34,-0.34,-0.12,-0.16,-0.04,-0.05,-0.06
403.72,0.27,0.37,0.28,0.38,-0.38,-0.11,-0.15,-0.12,-0.10,-0.11
407.76,0.27,0.40,0.27,0.42,-0.43,-0.10,-0.15,-0.16,-0.16,-0.14
411.84,0.27,0.46,0.26,0.46,-0.47,-0.09,-0.14,-0.20,-0.21,-0.20
415.96,0.27,0.52,0.27,0.51,-0.51,-0.08,-0.13,-0.25,-0.25,-0.25
420.12,0.27,0.55,0.27,0.55,-0.56,-0.07,-0.12,-0.29,-0.29,-0.28
424.32,0.27,0.60,0.27,0.60,-0.60,-0.06,-0.11,-0.33,-0.33,-0.33
428.56,0.27,0.64,0.27,0.64,-0.63,-0.05,-0.10,-0.36,-0.36,-0.37
432.85,0.27,0.68,0.26,0.67,-0.65,-0.04,-0.09,-0.39,-0.39,-0.41
437.18,0.26,0.67,0.26,0.69,-0.67,-0.03,-0.08,-0.41,-0.41,-0.41
441.55,0.25,0.69,0.25,0.68,-0.68,-0.02,-0.07,-0.43,-0.43,-0.44
445.96,0.25,0.69,0.24,0.67,-0.67,-0.01,-0.06,-0.43,-0.43,-0.44
450.42,0.23,0.64,0.23,0.66,-0.66,-0.00,-0.05,-0.44,-0.43,-0.41
454.93,0.23,0.64,0.23,0.63,-0.64,0.01,-0.04,-0.42,-0.41,-0.41
459.48,0.23,0.61,0.22,0.61,-0.62,0.02,-0.03,-0.39,-0.39,-0.38
464.07,0.23,0.58,0.23,0.59,-0.58,0.03,-0.02,-0.36,-0.36,-0.35
468.71,0.23,0.55,0.23,0.55,-0.55,0.04,-0.01,-0.32,-0.32,-0.33
