frequency,raw,error,smoothed,error_smoothed,equalization,parametric_eq,fixed_band_eq,equalized_raw,equalized_smoothed,target
20.00,-3.61,-0.00,-3.62,-0.00,-0.01,0.00,-0.04,-3.62,-3.63,-3.61
20.20,-3.58,0.03,-3.58,0.01,-0.01,0.00,-0.04,-3.60,-3.59,-3.61
20.40,-3.54,0.02,-3.53,0.02,-0.02,0.00,-0.04,-3.56,-3.55,-3.56
20.61,-3.48,0.04,-3.49,0.03,-0.02,0.00,-0.04,-3.51,-3.51,-3.52
20.81,-3.43,0.04,-3.44,0.03,-0.03,0.00,-0.04,-3.46,-3.47,-3.47
21.02,-3.39,0.04,-3.39,0.04,-0.03,0.00,-0.04,-3.43,-3.42,-3.43
21.23,-3.35,0.04,-3.35,0.04,-0.04,0.00,-0.04,-3.39,-3.39,-3.39
21.44,-3.30,0.04,-3.31,0.03,-0.04,0.00,-0.04,-3.34,-3.35,-3.34
21.66,-3.26,0.03,-3.26,0.03,-0.04,0.00,-0.04,-3.31,-3.31,-3.29
21.87,-3.21,0.04,-3.21,0.04,-0.05,0.00,-0.04,-3.26,-3.26,-3.25
22.09,-3.15,0.06,-3.15,0.05,-0.05,0.00,-0.04,-3.21,-3.20,-3.21
22.31,-3.09,0.06,-3.10,0.06,-0.06,0.00,-0.04,-3.15,-3.15,-3.15
22.54,-3.04,0.08,-3.05,0.07,-0.06,0.00,-0.04,-3.10,-3.11,-3.12
22.76,-3.01,0.06,-3.01,0.07,-0.06,0.00,-0.04,-3.07,-3.06,-3.07
22.99,-2.96,0.06,-2.97,0.06,-0.06,0.00,-0.04,-3.02,-3.03,-3.02
23.22,-2.93,0.06,-2.94,0.05,-0.06,0.00,-0.04,-2.99,-2.99,-2.99
23.45,-2.90,0.04,-2.90,0.04,-0.05,0.00,-0.04,-2.95,-2.95,-2.94
23.69,-2.87,0.04,-2.87,0.04,-0.04,0.00,-0.04,-2.92,-2.91,-2.91
23.92,-2.83,0.03,-2.83,0.04,-0.04,0.00,-0.04,-2.87,-2.87,-2.86
24.16,-2.78,0.05,-2.79,0.04,-0.03,0.00,-0.04,-2.82,-2.83,-2.83
24.40,-2.75,0.03,-2.75,0.03,-0.03,0.00,-0.04,-2.79,-2.79,-2.78
24.65,-2.72,0.02,-2.72,0.03,-0.03,0.00,-0.04,-2.76,-2.75,-2.75
24.89,-2.67,0.02,-2.68,0.02,-0.04,0.00,-0.05,-2.71,-2.71,-2.70
25.14,-2.63,0.03,-2.63,0.03,-0.04,0.00,-0.05,-2.67,-2.67,-2.67
25.39,-2.57,0.04,-2.58,0.05,-0.04,0.00,-0.05,-2.61,-2.62,-2.62
25.65,-2.52,0.06,-2.53,0.05,-0.04,0.00,-0.05,-2.57,-2.58,-2.59
25.91,-2.50,0.05,-2.49,0.05,-0.04,0.00,-0.05,-2.55,-2.53,-2.56
26.16,-2.46,0.03,-2.47,0.04,-0.04,0.00,-0.05,-2.50,-2.51,-2.50
26.43,-2.43,0.04,-2.44,0.03,-0.03,0.00,-0.05,-2.47,-2.47,-2.47
26.69,-2.42,0.02,-2.41,0.02,-0.02,0.00,-0.05,-2.45,-2.44,-2.44
26.96,-2.37,0.02,-2.39,0.01,-0.01,0.00,-0.05,-2.39,-2.40,-2.39
27.23,-2.37,-0.01,-2.37,-0.00,0.00,0.00,-0.05,-2.37,-2.36,-2.36
27.50,-2.33,-0.00,-2.34,-0.01,0.01,0.00,-0.05,-2.32,-2.33,-2.33
27.77,-2.33,-0.03,-2.33,-0.02,0.02,0.00,-0.05,-2.31,-2.30,-2.30
28.05,-2.29,-0.03,-2.30,-0.03,0.03,0.00,-0.05,-2.26,-2.27,-2.26
28.33,-2.28,-0.04,-2.28,-0.04,0.04,0.00,-0.05,-2.25,-2.24,-2.24
28.62,-2.24,-0.04,-2.24,-0.04,0.04,0.00,-0.05,-2.20,-2.20,-2.21
28.90,-2.20,-0.04,-2.21,-0.04,0.04,0.00,-0.04,-2.16,-2.17,-2.17
29.19,-2.18,-0.05,-2.18,-0.04,0.04,0.00,-0.04,-2.15,-2.14,-2.14
29.48,-2.14,-0.04,-2.14,-0.04,0.03,0.00,-0.04,-2.11,-2.11,-2.11
29.78,-2.09,-0.02,-2.10,-0.02,0.02,0.00,-0.04,-2.08,-2.08,-2.07
30.08,-2.05,-0.01,-2.05,-0.01,0.00,0.00,-0.04,-2.05,-2.05,-2.04
30.38,-2.00,0.03,-2.01,0.01,-0.01,0.00,-0.04,-2.02,-2.02,-2.03
30.68,-1.96,0.02,-1.96,0.03,-0.03,0.00,-0.04,-1.99,-1.99,-1.98
30.99,-1.91,0.04,-1.92,0.05,-0.04,0.00,-0.04,-1.96,-1.96,-1.95
31.30,-1.87,0.07,-1.87,0.06,-0.05,0.00,-0.04,-1.93,-1.93,-1.94
31.61,-1.83,0.07,-1.83,0.08,-0.06,0.00,-0.04,-1.90,-1.90,-1.91
31.93,-1.80,0.08,-1.81,0.08,-0.07,0.00,-0.04,-1.88,-1.88,-1.89
32.24,-1.77,0.07,-1.78,0.07,-0.08,0.00,-0.03,-1.85,-1.86,-1.85
32.57,-1.76,0.06,-1.75,0.07,-0.08,0.00,-0.03,-1.84,-1.83,-1.82
32.89,-1.72,0.07,-1.72,0.07,-0.08,0.00,-0.03,-1.80,-1.80,-1.79
33.22,-1.68,0.09,-1.69,0.08,-0.07,0.00,-0.03,-1.75,-1.76,-1.77
33.55,-1.65,0.08,-1.66,0.08,-0.06,0.00,-0.03,-1.72,-1.73,-1.73
33.89,-1.64,0.06,-1.64,0.07,-0.06,0.00,-0.03,-1.70,-1.70,-1.71
34.23,-1.64,0.04,-1.63,0.05,-0.05,0.00,-0.03,-1.70,-1.68,-1.69
34.57,-1.59,0.05,-1.60,0.04,-0.05,0.00,-0.03,-1.65,-1.66,-1.64
34.92,-1.57,0.04,-1.58,0.04,-0.05,0.00,-0.02,-1.62,-1.63,-1.61
35.27,-1.54,0.04,-1.54,0.04,-0.05,0.00,-0.02,-1.59,-1.59,-1.58
35.62,-1.51,0.04,-1.51,0.05,-0.04,0.00,-0.02,-1.56,-1.55,-1.56
35.97,-1.46,0.05,-1.47,0.05,-0.04,0.00,-0.02,-1.51,-1.52,-1.52
36.33,-1.43,0.06,-1.44,0.05,-0.04,0.00,-0.02,-1.48,-1.48,-1.49
36.70,-1.42,0.04,-1.41,0.05,-0.04,0.00,-0.02,-1.47,-1.46,-1.46
37.06,-1.38,0.05,-1.39,0.05,-0.04,0.00,-0.02,-1.43,-1.43,-1.43
37.43,-1.36,0.04,-1.36,0.04,-0.04,0.00,-0.01,-1.41,-1.40,-1.41
37.81,-1.33,0.04,-1.33,0.04,-0.04,0.00,-0.01,-1.37,-1.37,-1.37
38.19,-1.30,0.03,-1.31,0.03,-0.04,0.00,-0.01,-1.34,-1.34,-1.33
38.57,-1.27,0.04,-1.28,0.03,-0.03,0.00,-0.01,-1.31,-1.31,-1.31
38.95,-1.25,0.02,-1.25,0.03,-0.03,0.00,-0.01,-1.28,-1.28,-1.28
39.34,-1.22,0.03,-1.23,0.03,-0.03,0.00,-0.01,-1.25,-1.26,-1.25
39.74,-1.20,0.05,-1.21,0.03,-0.02,0.00,-0.01,-1.23,-1.23,-1.25
40.14,-1.20,0.00,-1.19,0.03,-0.02,0.00,-0.01,-1.22,-1.21,-1.21
40.54,-1.16,0.04,-1.18,0.02,-0.02,0.00,-0.01,-1.18,-1.19,-1.20
40.94,-1.16,-0.00,-1.16,0.01,-0.01,0.00,-0.00,-1.18,-1.18,-1.16
41.35,-1.15,0.01,-1.15,0.02,-0.01,0.00,-0.00,-1.17,-1.16,-1.17
41.76,-1.12,0.04,-1.13,0.01,-0.02,0.00,-0.00,-1.14,-1.15,-1.16
42.18,-1.12,0.01,-1.12,0.02,-0.03,0.00,-0.00,-1.15,-1.15,-1.13
42.60,-1.09,0.03,-1.10,0.03,-0.05,0.00,-0.00,-1.14,-1.14,-1.12
43.03,-1.07,0.05,-1.07,0.05,-0.07,0.00,-0.00,-1.14,-1.14,-1.12
43.46,-1.04,0.08,-1.04,0.08,-0.09,0.00,0.00,-1.13,-1.13,-1.13
43.90,-0.99,0.13,-1.01,0.12,-0.11,0.00,0.00,-1.10,-1.12,-1.12
44.33,-0.99,0.13,-0.98,0.15,-0.13,0.00,0.00,-1.12,-1.11,-1.13
44.78,-0.94,0.18,-0.96,0.16,-0.15,0.00,0.00,-1.09,-1.11,-1.12
45.23,-0.94,0.18,-0.94,0.17,-0.16,0.00,0.00,-1.11,-1.11,-1.13
45.68,-0.94,0.15,-0.93,0.18,-0.18,0.00,0.00,-1.12,-1.10,-1.09
46.13,-0.90,0.19,-0.92,0.17,-0.18,0.00,0.00,-1.09,-1.10,-1.10
46.60,-0.90,0.17,-0.91,0.17,-0.18,0.00,0.00,-1.09,-1.09,-1.07
47.06,-0.90,0.17,-0.90,0.17,-0.18,0.00,0.00,-1.09,-1.08,-1.07
47.53,-0.90,0.17,-0.90,0.17,-0.17,0.00,0.00,-1.08,-1.08,-1.08
48.01,-0.90,0.17,-0.90,0.17,-0.16,0.00,0.00,-1.07,-1.06,-1.07
48.49,-0.90,0.16,-0.90,0.16,-0.15,0.00,0.01,-1.05,-1.05,-1.07
48.97,-0.90,0.13,-0.91,0.14,-0.12,0.00,0.01,-1.03,-1.04,-1.03
49.46,-0.93,0.10,-0.93,0.10,-0.09,0.00,0.01,-1.03,-1.03,-1.03
49.96,-0.96,0.07,-0.96,0.06,-0.06,0.00,0.01,-1.02,-1.02,-1.03
50.46,-0.99,0.00,-1.00,0.01,-0.01,0.00,0.01,-1.01,-1.01,-1.00
50.96,-1.03,-0.04,-1.03,-0.04,0.04,0.00,0.01,-0.99,-0.99,-0.99
51.47,-1.07,-0.10,-1.07,-0.10,0.10,0.00,0.01,-0.98,-0.97,-0.97
51.99,-1.10,-0.16,-1.11,-0.15,0.16,0.00,0.01,-0.94,-0.95,-0.94
52.51,-1.14,-0.20,-1.14,-0.21,0.22,0.00,0.01,-0.92,-0.92,-0.94
53.03,-1.18,-0.26,-1.19,-0.27,0.28,0.00,0.01,-0.90,-0.91,-0.92
53.56,-1.24,-0.34,-1.24,-0.34,0.34,0.00,0.01,-0.91,-0.90,-0.90
54.10,-1.30,-0.40,-1.30,-0.40,0.39,0.00,0.01,-0.92,-0.91,-0.90
54.64,-1.34,-0.44,-1.35,-0.45,0.43,0.00,0.01,-0.92,-0.92,-0.90
55.18,-1.38,-0.48,-1.39,-0.47,0.46,0.00,0.01,-0.92,-0.93,-0.90
55.74,-1.42,-0.48,-1.41,-0.49,0.48,0.00,0.01,-0.94,-0.93,-0.94
56.29,-1.42,-0.48,-1.43,-0.49,0.49,0.00,0.01,-0.93,-0.94,-0.94
56.86,-1.42,-0.48,-1.44,-0.48,0.49,0.00,0.00,-0.94,-0.95,-0.94
57.42,-1.46,-0.47,-1.45,-0.47,0.47,0.00,0.00,-0.99,-0.98,-0.99
58.00,-1.46,-0.46,-1.46,-0.45,0.45,0.00,0.00,-1.01,-1.01,-1.01
58.58,-1.46,-0.43,-1.47,-0.43,0.42,0.00,0.00,-1.04,-1.04,-1.03
59.16,-1.46,-0.39,-1.46,-0.40,0.39,0.00,0.00,-1.07,-1.07,-1.07
59.76,-1.46,-0.37,-1.46,-0.36,0.36,0.00,0.00,-1.10,-1.10,-1.10
60.35,-1.46,-0.32,-1.46,-0.33,0.33,0.00,0.00,-1.14,-1.14,-1.14
60.96,-1.46,-0.29,-1.46,-0.29,0.29,0.00,0.00,-1.17,-1.17,-1.18
61.57,-1.46,-0.26,-1.46,-0.25,0.26,0.00,0.00,-1.20,-1.20,-1.20
62.18,-1.46,-0.21,-1.46,-0.22,0.23,0.00,0.00,-1.23,-1.23,-1.26
62.80,-1.46,-0.18,-1.48,-0.20,0.20,0.00,0.00,-1.26,-1.27,-1.28
63.43,-1.50,-0.20,-1.49,-0.18,0.18,0.00,0.00,-1.32,-1.31,-1.31
64.07,-1.51,-0.18,-1.51,-0.17,0.17,0.00,0.00,-1.35,-1.34,-1.34
64.71,-1.51,-0.14,-1.52,-0.15,0.15,0.00,0.00,-1.36,-1.36,-1.37
65.35,-1.51,-0.13,-1.52,-0.13,0.14,0.00,0.00,-1.37,-1.38,-1.38
66.01,-1.53,-0.11,-1.53,-0.12,0.12,0.00,0.00,-1.41,-1.40,-1.42
66.67,-1.53,-0.12,-1.53,-0.11,0.10,0.00,0.00,-1.43,-1.43,-1.42
67.33,-1.51,-0.09,-1.52,-0.09,0.07,0.00,0.00,-1.45,-1.45,-1.43
68.01,-1.49,-0.06,-1.48,-0.06,0.03,0.00,0.00,-1.47,-1.46,-1.44
68.69,-1.42,-0.01,-1.43,-0.00,-0.02,0.00,0.00,-1.44,-1.45,-1.42
69.37,-1.36,0.06,-1.36,0.07,-0.07,0.00,0.00,-1.43,-1.43,-1.42
70.07,-1.26,0.15,-1.27,0.13,-0.12,0.00,0.00,-1.39,-1.40,-1.41
70.77,-1.18,0.20,-1.19,0.19,-0.18,0.00,0.00,-1.36,-1.36,-1.38
71.48,-1.10,0.22,-1.09,0.25,-0.22,0.00,0.00,-1.33,-1.31,-1.33
72.19,-0.99,0.29,-1.00,0.28,-0.27,0.00,0.00,-1.26,-1.27,-1.28
72.91,-0.90,0.32,-0.91,0.31,-0.30,0.00,0.00,-1.21,-1.21,-1.22
73.64,-0.83,0.32,-0.82,0.33,-0.33,0.00,0.00,-1.17,-1.15,-1.15
74.38,-0.73,0.34,-0.74,0.34,-0.35,0.00,0.00,-1.09,-1.09,-1.08
75.12,-0.65,0.35,-0.65,0.35,-0.37,0.00,0.00,-1.02,-1.02,-1.00
75.87,-0.57,0.35,-0.57,0.36,-0.37,0.00,0.00,-0.94,-0.94,-0.93
76.63,-0.49,0.38,-0.49,0.38,-0.36,0.00,0.00,-0.85,-0.85,-0.87
77.40,-0.42,0.38,-0.43,0.38,-0.35,0.00,0.00,-0.77,-0.78,-0.80
78.17,-0.38,0.37,-0.39,0.36,-0.33,0.00,0.00,-0.71,-0.72,-0.75
78.95,-0.38,0.32,-0.38,0.31,-0.30,0.00,0.00,-0.69,-0.69,-0.70
79.74,-0.38,0.25,-0.38,0.26,-0.28,0.00,0.00,-0.66,-0.65,-0.63
80.54,-0.36,0.21,-0.36,0.22,-0.25,0.00,0.00,-0.62,-0.61,-0.57
81.35,-0.31,0.21,-0.31,0.20,-0.23,0.00,0.00,-0.54,-0.54,-0.52
82.16,-0.26,0.20,-0.26,0.20,-0.20,0.00,0.00,-0.47,-0.46,-0.46
82.98,-0.20,0.20,-0.21,0.20,-0.18,0.00,0.01,-0.39,-0.40,-0.40
83.81,-0.17,0.19,-0.17,0.18,-0.17,0.00,0.01,-0.35,-0.35,-0.37
84.65,-0.14,0.16,-0.14,0.17,-0.17,0.00,0.01,-0.31,-0.31,-0.31
85.50,-0.11,0.16,-0.11,0.16,-0.16,0.00,0.01,-0.28,-0.28,-0.27
86.35,-0.08,0.16,-0.09,0.16,-0.16,0.00,0.01,-0.25,-0.25,-0.25
87.22,-0.05,0.16,-0.05,0.16,-0.16,0.00,0.01,-0.21,-0.21,-0.21
88.09,-0.03,0.15,-0.03,0.16,-0.16,0.00,0.01,-0.20,-0.19,-0.19
88.97,0.01,0.17,-0.01,0.16,-0.17,0.00,0.01,-0.16,-0.17,-0.16
89.86,0.01,0.17,0.02,0.17,-0.18,0.00,0.01,-0.17,-0.16,-0.17
90.76,0.05,0.18,0.04,0.18,-0.19,0.00,0.01,-0.14,-0.14,-0.13
91.66,0.07,0.19,0.06,0.19,-0.20,0.00,0.01,-0.13,-0.13,-0.12
92.58,0.10,0.22,0.09,0.20,-0.20,0.00,0.01,-0.10,-0.11,-0.13
93.51,0.10,0.19,0.11,0.21,-0.20,0.00,0.01,-0.10,-0.09,-0.09
94.44,0.14,0.22,0.13,0.20,-0.19,0.00,0.01,-0.05,-0.06,-0.08
95.39,0.14,0.19,0.13,0.19,-0.17,0.00,0.01,-0.04,-0.04,-0.05
96.34,0.14,0.16,0.14,0.16,-0.15,0.00,0.01,-0.01,-0.01,-0.03
97.30,0.14,0.13,0.13,0.12,-0.12,0.00,0.01,0.01,0.01,0.00
98.28,0.14,0.07,0.14,0.08,-0.09,0.00,0.02,0.04,0.05,0.07
99.26,0.14,0.04,0.15,0.05,-0.06,0.00,0.02,0.08,0.09,0.10
100.25,0.18,0.04,0.16,0.02,-0.03,0.00,0.02,0.14,0.13,0.14
101.25,0.18,-0.00,0.17,0.00,-0.01,0.00,0.02,0.17,0.17,0.18
102.27,0.18,-0.01,0.19,-0.01,0.01,0.00,0.02,0.19,0.20,0.19
103.29,0.20,-0.03,0.20,-0.03,0.03,0.00,0.02,0.22,0.22,0.23
104.32,0.23,-0.02,0.21,-0.04,0.03,0.00,0.02,0.26,0.24,0.25
105.37,0.23,-0.04,0.23,-0.04,0.04,0.00,0.02,0.26,0.27,0.27
106.42,0.23,-0.05,0.24,-0.04,0.04,0.00,0.02,0.27,0.28,0.27
107.48,0.27,-0.04,0.25,-0.04,0.04,0.00,0.02,0.31,0.29,0.30
108.56,0.27,-0.04,0.27,-0.04,0.05,0.00,0.02,0.31,0.31,0.30
109.64,0.27,-0.04,0.28,-0.04,0.05,0.00,0.02,0.31,0.33,0.30
110.74,0.31,-0.05,0.29,-0.04,0.05,0.00,0.02,0.35,0.34,0.35
111.85,0.31,-0.05,0.30,-0.05,0.05,0.00,0.03,0.36,0.35,0.36
112.97,0.31,-0.05,0.31,-0.06,0.05,0.00,0.03,0.36,0.36,0.36
114.10,0.31,-0.07,0.31,-0.06,0.05,0.00,0.03,0.36,0.37,0.38
115.24,0.33,-0.07,0.33,-0.06,0.05,0.00,0.03,0.38,0.38,0.40
116.39,0.36,-0.04,0.35,-0.05,0.06,0.00,0.03,0.41,0.40,0.39
117.55,0.36,-0.04,0.36,-0.05,0.06,0.00,0.03,0.41,0.42,0.40
118.73,0.36,-0.07,0.36,-0.06,0.06,0.00,0.03,0.42,0.42,0.43
119.92,0.36,-0.08,0.36,-0.07,0.08,0.00,0.03,0.43,0.44,0.44
121.12,0.36,-0.08,0.35,-0.08,0.09,0.00,0.03,0.45,0.44,0.43
122.33,0.36,-0.08,0.34,-0.10,0.11,0.00,0.03,0.47,0.45,0.44
123.55,0.31,-0.14,0.32,-0.12,0.13,0.00,0.03,0.44,0.46,0.44
124.79,0.31,-0.15,0.31,-0.15,0.15,0.00,0.03,0.46,0.46,0.46
126.03,0.31,-0.18,0.29,-0.18,0.17,0.00,0.03,0.47,0.46,0.49
127.29,0.29,-0.20,0.28,-0.20,0.18,0.00,0.03,0.47,0.46,0.49
128.57,0.27,-0.22,0.28,-0.21,0.19,0.00,0.04,0.46,0.47,0.48
129.85,0.27,-0.22,0.28,-0.20,0.20,0.00,0.04,0.47,0.48,0.49
131.15,0.31,-0.18,0.29,-0.19,0.21,0.00,0.04,0.52,0.50,0.49
132.46,0.31,-0.18,0.31,-0.19,0.22,0.00,0.04,0.53,0.53,0.48
133.79,0.31,-0.21,0.31,-0.20,0.22,0.00,0.04,0.53,0.53,0.51
135.12,0.31,-0.21,0.29,-0.23,0.23,0.00,0.04,0.53,0.52,0.52
136.48,0.27,-0.26,0.28,-0.25,0.23,0.00,0.04,0.49,0.51,0.53
137.84,0.27,-0.26,0.28,-0.25,0.23,0.00,0.04,0.49,0.50,0.53
139.22,0.31,-0.22,0.29,-0.24,0.22,0.00,0.04,0.53,0.51,0.53
140.61,0.31,-0.22,0.31,-0.22,0.21,0.00,0.04,0.52,0.53,0.53
142.02,0.34,-0.20,0.33,-0.19,0.20,0.00,0.04,0.54,0.54,0.53
143.44,0.36,-0.17,0.35,-0.17,0.18,0.00,0.04,0.54,0.53,0.52
144.87,0.37,-0.16,0.37,-0.16,0.16,0.00,0.04,0.52,0.53,0.53
146.32,0.40,-0.13,0.39,-0.14,0.14,0.00,0.04,0.53,0.53,0.53
147.78,0.40,-0.13,0.41,-0.12,0.12,0.00,0.04,0.51,0.53,0.52
149.26,0.44,-0.09,0.43,-0.10,0.11,0.00,0.04,0.54,0.53,0.53
150.75,0.44,-0.09,0.43,-0.09,0.10,0.00,0.05,0.54,0.53,0.52
152.26,0.44,-0.09,0.44,-0.09,0.10,0.00,0.05,0.53,0.54,0.53
153.78,0.44,-0.09,0.44,-0.09,0.09,0.00,0.05,0.53,0.53,0.52
155.32,0.44,-0.10,0.44,-0.10,0.09,0.00,0.05,0.53,0.53,0.53
156.88,0.44,-0.10,0.43,-0.10,0.10,0.00,0.05,0.53,0.53,0.54
158.44,0.44,-0.11,0.44,-0.11,0.10,0.00,0.05,0.54,0.54,0.55
160.03,0.45,-0.12,0.45,-0.11,0.10,0.00,0.05,0.55,0.55,0.57
161.63,0.47,-0.10,0.46,-0.11,0.10,0.00,0.05,0.57,0.56,0.56
163.24,0.47,-0.10,0.47,-0.10,0.10,0.00,0.05,0.57,0.57,0.56
164.88,0.47,-0.10,0.47,-0.10,0.10,0.00,0.05,0.57,0.57,0.56
166.53,0.47,-0.10,0.47,-0.10,0.10,0.00,0.05,0.57,0.57,0.56
168.19,0.47,-0.10,0.47,-0.10,0.11,0.00,0.06,0.57,0.57,0.57
169.87,0.47,-0.10,0.46,-0.10,0.11,0.00,0.06,0.58,0.58,0.57
171.57,0.47,-0.10,0.46,-0.11,0.12,0.00,0.06,0.59,0.58,0.57
173.29,0.44,-0.13,0.45,-0.13,0.13,0.00,0.06,0.57,0.57,0.56
175.02,0.44,-0.15,0.44,-0.15,0.14,0.00,0.06,0.57,0.57,0.59
176.77,0.44,-0.15,0.44,-0.16,0.14,0.00,0.06,0.58,0.58,0.59
178.54,0.45,-0.17,0.45,-0.16,0.15,0.00,0.06,0.59,0.60,0.62
180.32,0.47,-0.15,0.47,-0.15,0.15,0.00,0.06,0.61,0.61,0.62
182.13,0.49,-0.13,0.48,-0.14,0.15,0.00,0.07,0.63,0.63,0.62
183.95,0.49,-0.13,0.49,-0.13,0.14,0.00,0.07,0.63,0.63,0.62
185.79,0.49,-0.13,0.49,-0.13,0.14,0.00,0.07,0.63,0.63,0.62
187.65,0.49,-0.13,0.49,-0.13,0.13,0.01,0.07,0.62,0.62,0.61
189.52,0.49,-0.13,0.49,-0.13,0.13,0.01,0.07,0.62,0.62,0.62
191.42,0.49,-0.13,0.49,-0.13,0.13,0.01,0.07,0.61,0.61,0.62
193.33,0.49,-0.13,0.48,-0.13,0.13,0.01,0.08,0.61,0.61,0.62
195.27,0.49,-0.13,0.49,-0.13,0.12,0.01,0.08,0.61,0.61,0.61
197.22,0.49,-0.13,0.49,-0.12,0.12,0.01,0.08,0.61,0.62,0.61
199.19,0.51,-0.11,0.50,-0.12,0.12,0.01,0.08,0.63,0.62,0.61
201.18,0.51,-0.12,0.50,-0.12,0.12,0.01,0.08,0.63,0.63,0.62
203.19,0.50,-0.13,0.50,-0.12,0.12,0.01,0.08,0.62,0.62,0.62
205.23,0.49,-0.14,0.49,-0.13,0.13,0.01,0.09,0.61,0.62,0.62
207.28,0.49,-0.13,0.49,-0.13,0.13,0.01,0.09,0.61,0.61,0.61
209.35,0.49,-0.13,0.49,-0.13,0.13,0.01,0.09,0.61,0.61,0.61
211.44,0.49,-0.13,0.49,-0.13,0.12,0.01,0.09,0.61,0.61,0.61
213.56,0.49,-0.13,0.49,-0.13,0.12,0.01,0.09,0.61,0.61,0.62
215.69,0.49,-0.13,0.49,-0.13,0.12,0.01,0.10,0.61,0.61,0.62
217.85,0.49,-0.11,0.49,-0.11,0.12,0.01,0.10,0.61,0.61,0.60
220.03,0.49,-0.11,0.49,-0.11,0.12,0.01,0.10,0.61,0.61,0.59
222.23,0.49,-0.10,0.48,-0.11,0.12,0.01,0.10,0.61,0.60,0.58
224.45,0.47,-0.12,0.47,-0.12,0.12,0.01,0.10,0.59,0.59,0.59
226.70,0.45,-0.14,0.45,-0.13,0.12,0.01,0.10,0.57,0.57,0.59
228.96,0.44,-0.13,0.44,-0.14,0.12,0.01,0.11,0.56,0.56,0.56
231.25,0.44,-0.13,0.43,-0.13,0.12,0.01,0.11,0.56,0.56,0.57
233.57,0.44,-0.13,0.44,-0.13,0.13,0.01,0.11,0.56,0.56,0.57
235.90,0.44,-0.13,0.44,-0.13,0.13,0.01,0.11,0.56,0.57,0.57
238.26,0.45,-0.12,0.44,-0.13,0.13,0.01,0.11,0.57,0.57,0.57
240.64,0.45,-0.12,0.45,-0.12,0.13,0.01,0.11,0.58,0.58,0.56
243.05,0.44,-0.13,0.44,-0.13,0.14,0.01,0.11,0.58,0.58,0.57
245.48,0.44,-0.13,0.42,-0.14,0.15,0.01,0.11,0.59,0.57,0.56
247.93,0.40,-0.17,0.41,-0.15,0.16,0.01,0.11,0.56,0.57,0.57
250.41,0.40,-0.17,0.40,-0.17,0.17,0.01,0.12,0.57,0.57,0.56
252.92,0.40,-0.17,0.38,-0.19,0.18,0.01,0.12,0.57,0.56,0.57
255.45,0.36,-0.21,0.37,-0.20,0.18,0.01,0.12,0.54,0.55,0.56
258.00,0.36,-0.21,0.36,-0.20,0.18,0.01,0.12,0.54,0.54,0.57
260.58,0.36,-0.19,0.36,-0.19,0.18,0.01,0.12,0.53,0.53,0.55
263.19,0.38,-0.15,0.37,-0.16,0.17,0.01,0.12,0.55,0.54,0.52
265.82,0.38,-0.15,0.38,-0.14,0.16,0.01,0.12,0.54,0.54,0.53
268.48,0.40,-0.13,0.39,-0.13,0.15,0.01,0.12,0.55,0.54,0.52
271.16,0.40,-0.14,0.40,-0.13,0.14,0.01,0.12,0.54,0.54,0.53
273.87,0.40,-0.13,0.40,-0.13,0.13,0.01,0.12,0.53,0.53,0.53
276.61,0.40,-0.13,0.40,-0.13,0.12,0.01,0.12,0.52,0.52,0.52
279.38,0.40,-0.14,0.40,-0.13,0.12,0.01,0.12,0.52,0.52,0.53
282.17,0.40,-0.13,0.40,-0.12,0.11,0.01,0.12,0.51,0.51,0.53
284.99,0.40,-0.11,0.40,-0.11,0.11,0.01,0.12,0.51,0.51,0.51
287.84,0.40,-0.09,0.40,-0.10,0.11,0.01,0.12,0.50,0.50,0.48
290.72,0.40,-0.09,0.40,-0.09,0.10,0.01,0.12,0.50,0.50,0.49
293.63,0.40,-0.09,0.40,-0.09,0.10,0.01,0.12,0.50,0.50,0.49
296.57,0.40,-0.09,0.40,-0.09,0.09,0.01,0.12,0.49,0.49,0.49
299.53,0.40,-0.09,0.40,-0.09,0.08,0.01,0.11,0.48,0.48,0.48
302.53,0.40,-0.09,0.39,-0.10,0.07,0.01,0.11,0.47,0.46,0.49
305.55,0.40,-0.09,0.40,-0.08,0.06,0.01,0.11,0.46,0.46,0.49
308.61,0.40,-0.08,0.41,-0.06,0.05,0.01,0.11,0.45,0.46,0.48
311.69,0.44,-0.01,0.43,-0.03,0.04,0.01,0.11,0.48,0.47,0.44
314.81,0.44,-0.01,0.43,-0.01,0.04,0.01,0.11,0.47,0.47,0.44
317.96,0.44,-0.00,0.43,-0.01,0.03,0.01,0.11,0.47,0.46,0.44
321.14,0.41,-0.03,0.42,-0.02,0.03,0.01,0.11,0.44,0.45,0.44
324.35,0.40,-0.04,0.40,-0.04,0.03,0.02,0.11,0.43,0.43,0.44
327.59,0.40,-0.04,0.38,-0.06,0.04,0.02,0.11,0.44,0.42,0.44
330.87,0.36,-0.08,0.37,-0.06,0.05,0.02,0.11,0.41,0.43,0.43
334.18,0.36,-0.07,0.36,-0.07,0.06,0.02,0.11,0.42,0.42,0.42
337.52,0.36,-0.05,0.34,-0.08,0.07,0.02,0.11,0.43,0.41,0.41
340.90,0.31,-0.09,0.32,-0.08,0.08,0.02,0.11,0.39,0.40,0.40
344.30,0.31,-0.09,0.31,-0.09,0.09,0.02,0.12,0.39,0.40,0.40
347.75,0.31,-0.09,0.30,-0.09,0.09,0.02,0.12,0.40,0.39,0.40
351.23,0.31,-0.09,0.31,-0.09,0.09,0.02,0.12,0.40,0.40,0.40
354.74,0.31,-0.09,0.31,-0.09,0.09,0.02,0.12,0.40,0.40,0.39
358.28,0.31,-0.09,0.31,-0.09,0.09,0.02,0.12,0.39,0.39,0.39
361.87,0.31,-0.10,0.31,-0.09,0.08,0.02,0.12,0.39,0.39,0.40
365.49,0.31,-0.07,0.31,-0.08,0.07,0.02,0.12,0.38,0.38,0.38
369.14,0.31,-0.07,0.31,-0.07,0.07,0.02,0.12,0.37,0.37,0.38
372.83,0.31,-0.05,0.31,-0.06,0.06,0.02,0.12,0.37,0.37,0.36
376.56,0.31,-0.05,0.31,-0.05,0.06,0.02,0.12,0.36,0.36,0.36
380.33,0.31,-0.05,0.31,-0.05,0.05,0.02,0.13,0.36,0.36,0.36
384.13,0.31,-0.05,0.31,-0.06,0.06,0.02,0.13,0.36,0.36,0.36
387.97,0.31,-0.07,0.31,-0.06,0.06,0.02,0.13,0.37,0.37,0.37
391.85,0.31,-0.07,0.31,-0.06,0.07,0.02,0.13,0.38,0.38,0.37
395.77,0.31,-0.07,0.30,-0.08,0.09,0.02,0.13,0.39,0.39,0.37
399.73,0.31,-0.09,0.29,-0.10,0.10,0.02,0.13,0.40,0.39,0.39
403.72,0.27,-0.14,0.28,-0.12,0.11,0.02,0.13,0.38,0.39,0.40
407.76,0.27,-0.13,0.27,-0.13,0.12,0.02,0.14,0.39,0.39,0.40
411.84,0.27,-0.13,0.26,-0.14,0.13,0.02,0.14,0.39,0.39,0.40
415.96,0.27,-0.13,0.27,-0.13,0.13,0.03,0.14,0.40,0.40,0.40
420.12,0.27,-0.13,0.27,-0.13,0.14,0.03,0.14,0.40,0.40,0.40
424.32,0.27,-0.13,0.27,-0.13,0.14,0.03,0.14,0.40,0.41,0.40
428.56,0.27,-0.13,0.27,-0.13,0.14,0.03,0.15,0.40,0.40,0.40
432.85,0.27,-0.13,0.26,-0.13,0.13,0.03,0.15,0.40,0.40,0.40
437.18,0.26,-0.14,0.26,-0.13,0.13,0.03,0.15,0.39,0.39,0.40
441.55,0.25,-0.13,0.25,-0.13,0.13,0.03,0.15,0.38,0.38,0.38
445.96,0.25,-0.13,0.24,-0.13,0.13,0.03,0.15,0.38,0.37,0.38
450.42,0.23,-0.13,0.23,-0.13,0.13,0.03,0.15,0.36,0.36,0.36
454.93,0.23,-0.13,0.23,-0.13,0.13,0.03,0.16,0.35,0.36,0.36
459.48,0.23,-0.13,0.22,-0.13,0.13,0.03,0.16,0.35,0.35,0.35
464.07,0.23,-0.13,0.23,-0.13,0.13,0.03,0.16,0.35,0.35,0.35
468.71,0.23,-0.13,0.23,-0.13,0.13,0.03,0.16,0.35,0.35,0.35
473.40,0.23,-0.13,0.23,-0.13,0.13,0.03,0.16,0.35,0.35,0.35
478.13,0.23,-0.13,0.23,-0.13,0.13,0.03,0.16,0.36,0.36,0.35
482.91,0.23,-0.13,0.23,-0.13,0.14,0.03,0.16,0.36,0.36,0.35
487.74,0.23,-0.14,0.23,-0.14,0.14,0.04,0.16,0.37,0.37,0.36
492.62,0.23,-0.16,0.23,-0.15,0.15,0.04,0.16,0.38,0.38,0.38
497.55,0.23,-0.16,0.23,-0.16,0.16,0.04,0.17,0.39,0.39,0.38
502.52,0.23,-0.18,0.23,-0.17,0.17,0.04,0.17,0.39,0.39,0.40
507.55,0.23,-0.18,0.23,-0.17,0.17,0.04,0.17,0.40,0.40,0.40
512.62,0.23,-0.17,0.23,-0.18,0.17,0.04,0.17,0.40,0.40,0.40
