frequency,raw,error,smoothed,error_smoothed,equalization,parametric_eq,fixed_band_eq,equalized_raw,equalized_smoothed,target
20.00,-3.61,-3.11,-3.62,-3.11,3.11,2.42,1.07,-0.51,-0.51,-0.50
20.20,-3.58,-3.06,-3.58,-3.08,3.08,2.43,1.11,-0.50,-0.50,-0.52
20.40,-3.54,-3.06,-3.53,-3.05,3.05,2.45,1.14,-0.49,-0.48,-0.48
20.61,-3.48,-3.01,-3.49,-3.02,3.02,2.46,1.18,-0.46,-0.47,-0.47
20.81,-3.43,-2.99,-3.44,-2.99,2.99,2.47,1.21,-0.44,-0.45,-0.44
21.02,-3.39,-2.96,-3.39,-2.96,2.96,2.49,1.25,-0.43,-0.43,-0.43
21.23,-3.35,-2.92,-3.35,-2.93,2.94,2.50,1.29,-0.42,-0.42,-0.43
21.44,-3.30,-2.91,-3.31,-2.91,2.91,2.51,1.33,-0.40,-0.40,-0.39
21.66,-3.26,-2.87,-3.26,-2.88,2.87,2.53,1.38,-0.39,-0.39,-0.39
21.87,-3.21,-2.87,-3.21,-2.85,2.84,2.54,1.42,-0.37,-0.37,-0.34
22.09,-3.15,-2.81,-3.15,-2.82,2.81,2.55,1.46,-0.34,-0.34,-0.34
22.31,-3.09,-2.77,-3.10,-2.78,2.78,2.56,1.51,-0.31,-0.32,-0.32
22.54,-3.04,-2.74,-3.05,-2.74,2.75,2.57,1.56,-0.29,-0.29,-0.30
22.76,-3.01,-2.71,-3.01,-2.71,2.73,2.58,1.61,-0.29,-0.28,-0.30
22.99,-2.96,-2.70,-2.97,-2.70,2.70,2.60,1.66,-0.26,-0.27,-0.26
23.22,-2.93,-2.67,-2.94,-2.68,2.68,2.61,1.71,-0.25,-0.25,-0.26
23.45,-2.90,-2.68,-2.90,-2.67,2.66,2.62,1.76,-0.24,-0.24,-0.22
23.69,-2.87,-2.66,-2.87,-2.65,2.64,2.63,1.81,-0.23,-0.23,-0.21
23.92,-2.83,-2.62,-2.83,-2.63,2.63,2.64,1.86,-0.21,-0.20,-0.21
24.16,-2.78,-2.61,-2.79,-2.61,2.61,2.65,1.92,-0.18,-0.18,-0.17
24.40,-2.75,-2.58,-2.75,-2.58,2.59,2.66,1.97,-0.17,-0.17,-0.17
24.65,-2.72,-2.58,-2.72,-2.57,2.56,2.67,2.03,-0.16,-0.16,-0.15
24.89,-2.67,-2.54,-2.68,-2.54,2.54,2.68,2.09,-0.14,-0.14,-0.14
25.14,-2.63,-2.53,-2.63,-2.52,2.51,2.68,2.15,-0.12,-0.11,-0.11
25.39,-2.57,-2.49,-2.58,-2.49,2.49,2.69,2.20,-0.08,-0.08,-0.09
25.65,-2.52,-2.47,-2.53,-2.47,2.48,2.70,2.26,-0.05,-0.06,-0.06
25.91,-2.50,-2.46,-2.49,-2.45,2.46,2.71,2.32,-0.04,-0.03,-0.05
26.16,-2.46,-2.44,-2.47,-2.45,2.45,2.72,2.38,-0.01,-0.02,-0.02
26.43,-2.43,-2.43,-2.44,-2.44,2.44,2.72,2.44,0.01,0.01,0.00
26.69,-2.42,-2.46,-2.41,-2.44,2.45,2.73,2.49,0.02,0.03,0.04
26.96,-2.37,-2.42,-2.39,-2.44,2.45,2.74,2.55,0.07,0.06,0.05
27.23,-2.37,-2.46,-2.37,-2.46,2.46,2.75,2.60,0.08,0.09,0.09
27.50,-2.33,-2.46,-2.34,-2.46,2.46,2.75,2.66,0.13,0.12,0.13
27.77,-2.33,-2.49,-2.33,-2.48,2.47,2.76,2.71,0.14,0.15,0.16
28.05,-2.29,-2.47,-2.30,-2.49,2.48,2.76,2.76,0.18,0.18,0.18
28.33,-2.28,-2.50,-2.28,-2.49,2.48,2.77,2.81,0.20,0.21,0.22
28.62,-2.24,-2.49,-2.24,-2.48,2.49,2.77,2.86,0.24,0.25,0.24
28.90,-2.20,-2.48,-2.21,-2.49,2.49,2.78,2.90,0.29,0.28,0.27
29.19,-2.18,-2.49,-2.18,-2.49,2.49,2.78,2.94,0.30,0.31,0.30
29.48,-2.14,-2.50,-2.14,-2.49,2.48,2.79,2.98,0.34,0.34,0.35
29.78,-2.09,-2.48,-2.10,-2.48,2.48,2.79,3.01,0.38,0.38,0.39
30.08,-2.05,-2.47,-2.05,-2.48,2.47,2.80,3.04,0.42,0.42,0.42
30.38,-2.00,-2.46,-2.01,-2.46,2.46,2.80,3.07,0.46,0.46,0.46
30.68,-1.96,-2.46,-1.96,-2.46,2.46,2.80,3.09,0.50,0.50,0.50
30.99,-1.91,-2.44,-1.92,-2.45,2.46,2.81,3.11,0.54,0.54,0.53
31.30,-1.87,-2.46,-1.87,-2.45,2.46,2.81,3.13,0.59,0.59,0.58
31.61,-1.83,-2.45,-1.83,-2.45,2.46,2.81,3.14,0.63,0.63,0.61
31.93,-1.80,-2.47,-1.81,-2.47,2.47,2.81,3.15,0.67,0.67,0.66
32.24,-1.77,-2.50,-1.78,-2.49,2.48,2.82,3.15,0.71,0.70,0.72
32.57,-1.76,-2.51,-1.75,-2.51,2.50,2.82,3.15,0.73,0.74,0.75
32.89,-1.72,-2.52,-1.72,-2.52,2.52,2.82,3.15,0.79,0.80,0.80
33.22,-1.68,-2.53,-1.69,-2.53,2.54,2.82,3.14,0.85,0.85,0.85
33.55,-1.65,-2.53,-1.66,-2.55,2.56,2.82,3.13,0.90,0.89,0.88
33.89,-1.64,-2.57,-1.64,-2.57,2.58,2.82,3.12,0.93,0.93,0.92
34.23,-1.64,-2.62,-1.63,-2.60,2.60,2.82,3.10,0.95,0.97,0.97
34.57,-1.59,-2.61,-1.60,-2.62,2.61,2.82,3.08,1.02,1.01,1.02
34.92,-1.57,-2.64,-1.58,-2.64,2.63,2.82,3.06,1.05,1.05,1.07
35.27,-1.54,-2.65,-1.54,-2.65,2.64,2.82,3.04,1.10,1.10,1.11
35.62,-1.51,-2.66,-1.51,-2.65,2.65,2.82,3.02,1.14,1.15,1.14
35.97,-1.46,-2.65,-1.47,-2.66,2.66,2.82,2.99,1.20,1.19,1.18
36.33,-1.43,-2.65,-1.44,-2.66,2.67,2.81,2.96,1.23,1.23,1.22
36.70,-1.42,-2.68,-1.41,-2.67,2.67,2.81,2.94,1.25,1.26,1.26
37.06,-1.38,-2.67,-1.39,-2.68,2.68,2.81,2.91,1.29,1.29,1.29
37.43,-1.36,-2.69,-1.36,-2.69,2.68,2.81,2.88,1.32,1.32,1.32
37.81,-1.33,-2.70,-1.33,-2.69,2.69,2.80,2.86,1.36,1.36,1.37
38.19,-1.30,-2.70,-1.31,-2.70,2.70,2.80,2.83,1.39,1.39,1.40
38.57,-1.27,-2.70,-1.28,-2.71,2.71,2.80,2.80,1.43,1.43,1.43
38.95,-1.25,-2.72,-1.25,-2.71,2.72,2.79,2.78,1.46,1.47,1.46
39.34,-1.22,-2.72,-1.23,-2.72,2.73,2.79,2.75,1.50,1.50,1.50
39.74,-1.20,-2.72,-1.21,-2.73,2.74,2.78,2.73,1.53,1.53,1.52
40.14,-1.20,-2.76,-1.19,-2.75,2.75,2.78,2.70,1.55,1.56,1.55
40.54,-1.16,-2.76,-1.18,-2.76,2.76,2.77,2.68,1.60,1.59,1.60
40.94,-1.16,-2.77,-1.16,-2.78,2.77,2.77,2.66,1.61,1.61,1.61
41.35,-1.15,-2.80,-1.15,-2.78,2.78,2.76,2.65,1.63,1.64,1.64
41.76,-1.12,-2.77,-1.13,-2.79,2.79,2.76,2.63,1.66,1.65,1.65
42.18,-1.12,-2.81,-1.12,-2.79,2.79,2.75,2.61,1.66,1.67,1.69
42.60,-1.09,-2.78,-1.10,-2.78,2.78,2.75,2.60,1.69,1.68,1.69
43.03,-1.07,-2.76,-1.07,-2.77,2.77,2.74,2.59,1.70,1.70,1.69
43.46,-1.04,-2.76,-1.04,-2.75,2.75,2.73,2.58,1.71,1.71,1.71
43.90,-0.99,-2.72,-1.01,-2.73,2.73,2.73,2.57,1.74,1.72,1.73
44.33,-0.99,-2.73,-0.98,-2.71,2.71,2.72,2.57,1.71,1.73,1.73
44.78,-0.94,-2.68,-0.96,-2.69,2.68,2.71,2.57,1.74,1.72,1.74
45.23,-0.94,-2.66,-0.94,-2.66,2.66,2.70,2.56,1.72,1.71,1.71
45.68,-0.94,-2.63,-0.93,-2.62,2.64,2.69,2.57,1.69,1.71,1.69
46.13,-0.90,-2.59,-0.92,-2.61,2.61,2.69,2.57,1.71,1.69,1.68
46.60,-0.90,-2.59,-0.91,-2.59,2.59,2.68,2.57,1.69,1.68,1.69
47.06,-0.90,-2.59,-0.90,-2.58,2.57,2.67,2.58,1.67,1.67,1.69
47.53,-0.90,-2.55,-0.90,-2.57,2.55,2.66,2.59,1.65,1.65,1.64
48.01,-0.90,-2.55,-0.90,-2.54,2.54,2.65,2.60,1.64,1.64,1.65
48.49,-0.90,-2.53,-0.90,-2.53,2.53,2.64,2.61,1.63,1.63,1.62
48.97,-0.90,-2.51,-0.91,-2.52,2.53,2.63,2.62,1.62,1.62,1.60
49.46,-0.93,-2.53,-0.93,-2.52,2.53,2.62,2.63,1.59,1.60,1.60
49.96,-0.96,-2.52,-0.96,-2.53,2.53,2.61,2.65,1.57,1.57,1.56
50.46,-0.99,-2.55,-1.00,-2.55,2.54,2.60,2.67,1.55,1.54,1.55
50.96,-1.03,-2.55,-1.03,-2.56,2.55,2.59,2.69,1.52,1.52,1.51
51.47,-1.07,-2.59,-1.07,-2.57,2.57,2.58,2.70,1.50,1.51,1.52
51.99,-1.10,-2.58,-1.11,-2.60,2.60,2.56,2.72,1.50,1.50,1.48
52.51,-1.14,-2.62,-1.14,-2.62,2.63,2.55,2.74,1.49,1.49,1.48
53.03,-1.18,-2.66,-1.19,-2.65,2.66,2.54,2.76,1.48,1.47,1.48
53.56,-1.24,-2.67,-1.24,-2.69,2.69,2.53,2.78,1.45,1.45,1.43
54.10,-1.30,-2.73,-1.30,-2.73,2.72,2.52,2.80,1.42,1.43,1.43
54.64,-1.34,-2.77,-1.35,-2.76,2.75,2.51,2.82,1.41,1.40,1.43
55.18,-1.38,-2.78,-1.39,-2.79,2.78,2.49,2.84,1.39,1.39,1.40
55.74,-1.42,-2.81,-1.41,-2.80,2.80,2.48,2.86,1.38,1.39,1.39
56.29,-1.42,-2.81,-1.43,-2.81,2.82,2.47,2.88,1.39,1.39,1.39
56.86,-1.42,-2.81,-1.44,-2.83,2.83,2.45,2.89,1.41,1.39,1.39
57.42,-1.46,-2.85,-1.45,-2.84,2.84,2.44,2.90,1.38,1.39,1.39
58.00,-1.46,-2.85,-1.46,-2.85,2.85,2.43,2.92,1.38,1.39,1.38
58.58,-1.46,-2.85,-1.47,-2.86,2.86,2.41,2.93,1.39,1.39,1.39
59.16,-1.46,-2.86,-1.46,-2.87,2.87,2.40,2.93,1.40,1.40,1.40
59.76,-1.46,-2.89,-1.46,-2.88,2.88,2.39,2.94,1.41,1.41,1.42
60.35,-1.46,-2.89,-1.46,-2.89,2.89,2.37,2.94,1.43,1.43,1.43
60.96,-1.46,-2.89,-1.46,-2.91,2.91,2.36,2.94,1.44,1.44,1.42
61.57,-1.46,-2.93,-1.46,-2.92,2.92,2.34,2.93,1.46,1.46,1.47
62.18,-1.46,-2.94,-1.46,-2.93,2.94,2.33,2.93,1.48,1.48,1.47
62.80,-1.46,-2.94,-1.48,-2.96,2.97,2.31,2.91,1.50,1.49,1.48
63.43,-1.50,-2.99,-1.49,-2.99,2.99,2.30,2.90,1.49,1.50,1.48
64.07,-1.51,-3.03,-1.51,-3.01,3.01,2.28,2.88,1.50,1.51,1.51
64.71,-1.51,-3.03,-1.52,-3.03,3.03,2.27,2.86,1.52,1.51,1.52
65.35,-1.51,-3.03,-1.52,-3.05,3.05,2.25,2.84,1.53,1.52,1.52
66.01,-1.53,-3.05,-1.53,-3.05,3.05,2.24,2.81,1.52,1.52,1.52
66.67,-1.53,-3.06,-1.53,-3.05,3.05,2.22,2.79,1.51,1.51,1.52
67.33,-1.51,-3.03,-1.52,-3.04,3.02,2.21,2.75,1.51,1.51,1.51
68.01,-1.49,-3.02,-1.48,-3.01,2.99,2.19,2.72,1.49,1.50,1.52
68.69,-1.42,-2.97,-1.43,-2.96,2.94,2.18,2.68,1.51,1.51,1.54
69.37,-1.36,-2.88,-1.36,-2.88,2.87,2.16,2.65,1.51,1.52,1.52
70.07,-1.26,-2.78,-1.27,-2.79,2.80,2.14,2.61,1.53,1.52,1.52
70.77,-1.18,-2.70,-1.19,-2.70,2.71,2.13,2.57,1.53,1.53,1.52
71.48,-1.10,-2.62,-1.09,-2.61,2.62,2.11,2.52,1.52,1.53,1.51
72.19,-0.99,-2.51,-1.00,-2.52,2.52,2.10,2.48,1.53,1.52,1.52
72.91,-0.90,-2.42,-0.91,-2.43,2.42,2.08,2.44,1.52,1.51,1.52
73.64,-0.83,-2.35,-0.82,-2.34,2.32,2.06,2.39,1.49,1.50,1.52
74.38,-0.73,-2.25,-0.74,-2.24,2.23,2.05,2.35,1.49,1.49,1.51
75.12,-0.65,-2.14,-0.65,-2.15,2.14,2.03,2.30,1.49,1.49,1.49
75.87,-0.57,-2.05,-0.57,-2.05,2.07,2.01,2.25,1.49,1.50,1.47
76.63,-0.49,-1.97,-0.49,-1.96,2.00,2.00,2.21,1.51,1.51,1.48
77.40,-0.42,-1.90,-0.43,-1.91,1.95,1.98,2.16,1.52,1.52,1.48
78.17,-0.38,-1.86,-0.39,-1.88,1.90,1.96,2.12,1.51,1.50,1.48
78.95,-0.38,-1.86,-0.38,-1.86,1.85,1.95,2.08,1.47,1.47,1.48
79.74,-0.38,-1.86,-0.38,-1.85,1.81,1.93,2.03,1.43,1.43,1.48
80.54,-0.36,-1.82,-0.36,-1.81,1.77,1.92,1.99,1.41,1.42,1.46
81.35,-0.31,-1.74,-0.31,-1.76,1.74,1.90,1.95,1.42,1.42,1.43
82.16,-0.26,-1.69,-0.26,-1.69,1.70,1.88,1.91,1.44,1.44,1.43
82.98,-0.20,-1.63,-0.21,-1.64,1.66,1.87,1.87,1.46,1.45,1.43
83.81,-0.17,-1.60,-0.17,-1.60,1.62,1.85,1.83,1.44,1.44,1.42
84.65,-0.14,-1.58,-0.14,-1.57,1.57,1.83,1.79,1.43,1.43,1.43
85.50,-0.11,-1.54,-0.11,-1.54,1.53,1.82,1.76,1.42,1.42,1.43
86.35,-0.08,-1.51,-0.09,-1.51,1.49,1.80,1.72,1.41,1.41,1.42
87.22,-0.05,-1.46,-0.05,-1.46,1.46,1.78,1.69,1.41,1.41,1.41
88.09,-0.03,-1.43,-0.03,-1.43,1.43,1.77,1.65,1.40,1.40,1.39
88.97,0.01,-1.38,-0.01,-1.39,1.40,1.75,1.62,1.41,1.39,1.39
89.86,0.01,-1.38,0.02,-1.37,1.37,1.73,1.59,1.38,1.39,1.38
90.76,0.05,-1.34,0.04,-1.34,1.34,1.72,1.56,1.39,1.39,1.39
91.66,0.07,-1.32,0.06,-1.32,1.32,1.70,1.54,1.38,1.38,1.39
92.58,0.10,-1.29,0.09,-1.30,1.30,1.69,1.51,1.39,1.39,1.38
93.51,0.10,-1.29,0.11,-1.28,1.28,1.67,1.48,1.38,1.39,1.39
94.44,0.14,-1.25,0.13,-1.26,1.27,1.65,1.46,1.41,1.40,1.39
95.39,0.14,-1.25,0.13,-1.25,1.26,1.64,1.44,1.40,1.39,1.39
96.34,0.14,-1.25,0.14,-1.25,1.25,1.62,1.41,1.38,1.39,1.38
97.30,0.14,-1.25,0.13,-1.25,1.24,1.61,1.39,1.38,1.37,1.38
98.28,0.14,-1.24,0.14,-1.24,1.23,1.59,1.37,1.37,1.37,1.38
99.26,0.14,-1.23,0.15,-1.22,1.22,1.57,1.35,1.36,1.37,1.37
100.25,0.18,-1.19,0.16,-1.21,1.21,1.56,1.34,1.38,1.37,1.37
101.25,0.18,-1.19,0.17,-1.19,1.19,1.54,1.32,1.37,1.36,1.37
102.27,0.18,-1.19,0.19,-1.17,1.18,1.53,1.30,1.35,1.36,1.37
103.29,0.20,-1.15,0.20,-1.16,1.16,1.51,1.29,1.35,1.36,1.35
104.32,0.23,-1.12,0.21,-1.14,1.14,1.50,1.27,1.37,1.35,1.35
105.37,0.23,-1.12,0.23,-1.12,1.12,1.48,1.26,1.35,1.35,1.35
106.42,0.23,-1.13,0.24,-1.11,1.10,1.47,1.25,1.33,1.35,1.35
107.48,0.27,-1.08,0.25,-1.10,1.09,1.45,1.23,1.36,1.34,1.34
108.56,0.27,-1.08,0.27,-1.08,1.08,1.44,1.22,1.35,1.35,1.34
109.64,0.27,-1.08,0.28,-1.06,1.07,1.42,1.21,1.34,1.36,1.34
110.74,0.31,-1.04,0.29,-1.06,1.07,1.41,1.20,1.37,1.36,1.34
111.85,0.31,-1.06,0.30,-1.06,1.06,1.40,1.19,1.37,1.36,1.37
112.97,0.31,-1.06,0.31,-1.07,1.06,1.38,1.18,1.36,1.36,1.37
114.10,0.31,-1.08,0.31,-1.07,1.05,1.37,1.17,1.36,1.36,1.39
115.24,0.33,-1.06,0.33,-1.06,1.04,1.35,1.16,1.37,1.37,1.39
116.39,0.36,-1.03,0.35,-1.04,1.04,1.34,1.15,1.40,1.39,1.38
117.55,0.36,-1.03,0.36,-1.03,1.04,1.33,1.14,1.39,1.39,1.38
118.73,0.36,-1.03,0.36,-1.03,1.04,1.31,1.13,1.39,1.39,1.39
119.92,0.36,-1.03,0.36,-1.03,1.04,1.30,1.12,1.39,1.40,1.39
121.12,0.36,-1.03,0.35,-1.03,1.04,1.29,1.11,1.40,1.40,1.38
122.33,0.36,-1.03,0.34,-1.05,1.05,1.27,1.10,1.41,1.39,1.39
123.55,0.31,-1.09,0.32,-1.06,1.07,1.26,1.10,1.38,1.39,1.39
124.79,0.31,-1.08,0.31,-1.09,1.09,1.25,1.09,1.39,1.40,1.39
126.03,0.31,-1.10,0.29,-1.11,1.10,1.24,1.08,1.41,1.39,1.41
127.29,0.29,-1.12,0.28,-1.12,1.11,1.22,1.07,1.40,1.39,1.41
128.57,0.27,-1.14,0.28,-1.14,1.12,1.21,1.06,1.39,1.40,1.40
129.85,0.27,-1.16,0.28,-1.14,1.13,1.20,1.05,1.40,1.41,1.43
131.15,0.31,-1.12,0.29,-1.13,1.14,1.19,1.04,1.44,1.43,1.43
132.46,0.31,-1.12,0.31,-1.12,1.14,1.18,1.03,1.45,1.45,1.42
133.79,0.31,-1.13,0.31,-1.12,1.14,1.17,1.02,1.45,1.45,1.43
135.12,0.31,-1.12,0.29,-1.14,1.14,1.16,1.01,1.45,1.43,1.43
136.48,0.27,-1.16,0.28,-1.15,1.14,1.15,1.00,1.40,1.42,1.43
137.84,0.27,-1.16,0.28,-1.15,1.13,1.13,0.99,1.40,1.41,1.43
139.22,0.31,-1.12,0.29,-1.14,1.12,1.12,0.98,1.43,1.41,1.43
140.61,0.31,-1.12,0.31,-1.12,1.11,1.11,0.97,1.42,1.43,1.43
142.02,0.34,-1.10,0.33,-1.09,1.10,1.10,0.96,1.43,1.43,1.43
143.44,0.36,-1.07,0.35,-1.07,1.08,1.09,0.95,1.44,1.43,1.42
144.87,0.37,-1.06,0.37,-1.06,1.06,1.08,0.94,1.43,1.43,1.43
146.32,0.40,-1.03,0.39,-1.04,1.04,1.08,0.93,1.44,1.43,1.43
147.78,0.40,-1.03,0.41,-1.02,1.02,1.07,0.92,1.42,1.43,1.42
149.26,0.44,-0.99,0.43,-1.00,1.00,1.06,0.92,1.44,1.43,1.43
150.75,0.44,-0.99,0.43,-0.99,0.99,1.05,0.91,1.43,1.43,1.42
152.26,0.44,-0.99,0.44,-0.98,0.98,1.04,0.90,1.42,1.42,1.43
153.78,0.44,-0.97,0.44,-0.97,0.97,1.03,0.89,1.41,1.41,1.40
155.32,0.44,-0.96,0.44,-0.96,0.96,1.02,0.89,1.40,1.39,1.39
156.88,0.44,-0.95,0.43,-0.95,0.95,1.02,0.88,1.39,1.38,1.39
158.44,0.44,-0.95,0.44,-0.95,0.94,1.01,0.87,1.38,1.38,1.39
160.03,0.45,-0.94,0.45,-0.94,0.93,1.00,0.87,1.38,1.38,1.39
161.63,0.47,-0.92,0.46,-0.93,0.93,0.99,0.86,1.39,1.39,1.38
163.24,0.47,-0.92,0.47,-0.92,0.92,0.99,0.86,1.39,1.39,1.38
164.88,0.47,-0.92,0.47,-0.92,0.92,0.98,0.86,1.39,1.39,1.38
166.53,0.47,-0.92,0.47,-0.92,0.92,0.98,0.85,1.39,1.39,1.38
168.19,0.47,-0.92,0.47,-0.92,0.92,0.97,0.85,1.39,1.39,1.39
169.87,0.47,-0.92,0.46,-0.92,0.93,0.96,0.85,1.40,1.39,1.39
171.57,0.47,-0.92,0.46,-0.93,0.93,0.96,0.85,1.40,1.39,1.39
173.29,0.44,-0.95,0.45,-0.94,0.94,0.95,0.84,1.37,1.38,1.38
175.02,0.44,-0.95,0.44,-0.95,0.94,0.95,0.84,1.37,1.37,1.39
176.77,0.44,-0.95,0.44,-0.95,0.93,0.94,0.84,1.37,1.37,1.39
178.54,0.45,-0.94,0.45,-0.94,0.93,0.94,0.84,1.38,1.38,1.39
180.32,0.47,-0.92,0.47,-0.92,0.93,0.93,0.85,1.39,1.39,1.39
182.13,0.49,-0.90,0.48,-0.91,0.92,0.93,0.85,1.41,1.40,1.39
183.95,0.49,-0.90,0.49,-0.90,0.91,0.93,0.85,1.40,1.40,1.39
185.79,0.49,-0.90,0.49,-0.90,0.91,0.92,0.85,1.39,1.39,1.39
187.65,0.49,-0.90,0.49,-0.90,0.90,0.92,0.86,1.39,1.39,1.38
189.52,0.49,-0.90,0.49,-0.90,0.90,0.92,0.86,1.38,1.38,1.39
191.42,0.49,-0.90,0.49,-0.90,0.90,0.91,0.87,1.38,1.38,1.39
193.33,0.49,-0.90,0.48,-0.90,0.89,0.91,0.87,1.38,1.38,1.39
195.27,0.49,-0.90,0.49,-0.90,0.89,0.91,0.88,1.38,1.38,1.38
197.22,0.49,-0.90,0.49,-0.89,0.89,0.91,0.88,1.38,1.39,1.38
199.19,0.51,-0.88,0.50,-0.89,0.89,0.90,0.89,1.40,1.39,1.38
201.18,0.51,-0.89,0.50,-0.89,0.89,0.90,0.90,1.40,1.39,1.39
203.19,0.50,-0.90,0.50,-0.89,0.89,0.90,0.90,1.39,1.39,1.39
205.23,0.49,-0.91,0.49,-0.90,0.90,0.90,0.91,1.39,1.39,1.39
207.28,0.49,-0.90,0.49,-0.90,0.90,0.90,0.92,1.39,1.39,1.38
209.35,0.49,-0.91,0.49,-0.91,0.91,0.90,0.93,1.40,1.40,1.39
211.44,0.49,-0.92,0.49,-0.92,0.92,0.90,0.94,1.40,1.40,1.40
213.56,0.49,-0.94,0.49,-0.93,0.92,0.90,0.95,1.41,1.41,1.43
215.69,0.49,-0.94,0.49,-0.94,0.93,0.90,0.96,1.42,1.42,1.43
217.85,0.49,-0.94,0.49,-0.94,0.94,0.90,0.96,1.43,1.43,1.43
220.03,0.49,-0.95,0.49,-0.94,0.95,0.90,0.97,1.44,1.44,1.43
222.23,0.49,-0.94,0.48,-0.95,0.96,0.90,0.98,1.45,1.44,1.42
224.45,0.47,-0.96,0.47,-0.96,0.98,0.91,0.99,1.44,1.44,1.43
226.70,0.45,-0.98,0.45,-0.98,0.99,0.91,1.00,1.44,1.44,1.43
228.96,0.44,-1.01,0.44,-1.01,1.00,0.91,1.01,1.44,1.44,1.44
231.25,0.44,-1.04,0.43,-1.03,1.01,0.91,1.02,1.45,1.44,1.48
233.57,0.44,-1.04,0.44,-1.04,1.02,0.92,1.03,1.46,1.46,1.48
235.90,0.44,-1.04,0.44,-1.04,1.03,0.92,1.04,1.47,1.47,1.48
238.26,0.45,-1.03,0.44,-1.03,1.04,0.92,1.05,1.49,1.49,1.48
240.64,0.45,-1.03,0.45,-1.03,1.06,0.93,1.06,1.50,1.50,1.47
243.05,0.44,-1.04,0.44,-1.05,1.07,0.93,1.06,1.50,1.50,1.48
245.48,0.44,-1.07,0.42,-1.08,1.08,0.93,1.07,1.52,1.50,1.50
247.93,0.40,-1.12,0.41,-1.10,1.09,0.94,1.08,1.49,1.51,1.52
250.41,0.40,-1.12,0.40,-1.12,1.11,0.94,1.09,1.51,1.51,1.51
252.92,0.40,-1.12,0.38,-1.14,1.13,0.95,1.09,1.53,1.51,1.52
255.45,0.36,-1.16,0.37,-1.15,1.15,0.96,1.10,1.50,1.51,1.51
258.00,0.36,-1.16,0.36,-1.16,1.16,0.96,1.11,1.51,1.52,1.52
260.58,0.36,-1.16,0.36,-1.17,1.16,0.97,1.11,1.52,1.52,1.52
263.19,0.38,-1.18,0.37,-1.17,1.17,0.98,1.12,1.54,1.54,1.55
265.82,0.38,-1.18,0.38,-1.17,1.17,0.98,1.12,1.55,1.55,1.56
268.48,0.40,-1.16,0.39,-1.17,1.17,0.99,1.13,1.57,1.57,1.55
271.16,0.40,-1.17,0.40,-1.16,1.18,1.00,1.13,1.57,1.57,1.56
273.87,0.40,-1.16,0.40,-1.17,1.18,1.01,1.14,1.58,1.58,1.56
276.61,0.40,-1.19,0.40,-1.19,1.19,1.01,1.14,1.58,1.58,1.58
279.38,0.40,-1.22,0.40,-1.20,1.19,1.02,1.15,1.59,1.59,1.61
282.17,0.40,-1.21,0.40,-1.21,1.20,1.03,1.16,1.60,1.60,1.61
284.99,0.40,-1.21,0.40,-1.21,1.21,1.04,1.16,1.61,1.61,1.61
287.84,0.40,-1.21,0.40,-1.22,1.22,1.05,1.17,1.62,1.62,1.60
290.72,0.40,-1.23,0.40,-1.23,1.23,1.06,1.17,1.63,1.63,1.63
293.63,0.40,-1.25,0.40,-1.24,1.24,1.07,1.18,1.64,1.64,1.65
296.57,0.40,-1.25,0.40,-1.25,1.25,1.08,1.19,1.64,1.64,1.65
299.53,0.40,-1.25,0.40,-1.25,1.25,1.10,1.20,1.65,1.65,1.64
302.53,0.40,-1.25,0.39,-1.26,1.25,1.11,1.20,1.65,1.65,1.65
305.55,0.40,-1.27,0.40,-1.27,1.25,1.12,1.21,1.65,1.65,1.67
308.61,0.40,-1.29,0.41,-1.27,1.26,1.13,1.22,1.65,1.67,1.69
311.69,0.44,-1.25,0.43,-1.26,1.26,1.15,1.23,1.70,1.69,1.68
314.81,0.44,-1.25,0.43,-1.25,1.27,1.16,1.25,1.71,1.70,1.68
317.96,0.44,-1.25,0.43,-1.26,1.28,1.17,1.26,1.72,1.71,1.69
321.14,0.41,-1.28,0.42,-1.28,1.30,1.19,1.27,1.70,1.71,1.69
324.35,0.40,-1.32,0.40,-1.31,1.31,1.20,1.28,1.71,1.71,1.72
327.59,0.40,-1.34,0.38,-1.35,1.33,1.22,1.30,1.73,1.71,1.73
330.87,0.36,-1.38,0.37,-1.37,1.36,1.23,1.31,1.71,1.73,1.73
334.18,0.36,-1.39,0.36,-1.38,1.38,1.25,1.33,1.74,1.73,1.74
337.52,0.36,-1.38,0.34,-1.40,1.40,1.27,1.35,1.76,1.73,1.74
340.90,0.31,-1.43,0.32,-1.42,1.41,1.28,1.37,1.72,1.74,1.74
344.30,0.31,-1.43,0.31,-1.43,1.43,1.30,1.39,1.73,1.73,1.74
347.75,0.31,-1.43,0.30,-1.44,1.43,1.32,1.41,1.74,1.74,1.74
351.23,0.31,-1.43,0.31,-1.43,1.44,1.34,1.43,1.75,1.75,1.73
354.74,0.31,-1.45,0.31,-1.44,1.45,1.36,1.45,1.75,1.75,1.75
358.28,0.31,-1.45,0.31,-1.45,1.45,1.38,1.47,1.76,1.76,1.75
361.87,0.31,-1.46,0.31,-1.45,1.45,1.39,1.50,1.76,1.76,1.76
365.49,0.31,-1.45,0.31,-1.45,1.45,1.41,1.52,1.76,1.76,1.76
369.14,0.31,-1.45,0.31,-1.45,1.45,1.44,1.55,1.76,1.76,1.76
372.83,0.31,-1.45,0.31,-1.45,1.45,1.46,1.58,1.76,1.76,1.76
376.56,0.31,-1.45,0.31,-1.45,1.45,1.48,1.61,1.75,1.75,1.76
380.33,0.31,-1.45,0.31,-1.45,1.44,1.50,1.64,1.75,1.75,1.76
384.13,0.31,-1.44,0.31,-1.44,1.44,1.52,1.67,1.74,1.74,1.75
387.97,0.31,-1.43,0.31,-1.43,1.44,1.55,1.70,1.74,1.74,1.73
391.85,0.31,-1.43,0.31,-1.42,1.44,1.57,1.73,1.75,1.75,1.73
395.77,0.31,-1.43,0.30,-1.43,1.44,1.59,1.77,1.75,1.75,1.73
399.73,0.31,-1.43,0.29,-1.44,1.44,1.62,1.80,1.75,1.74,1.73
403.72,0.27,-1.48,0.28,-1.46,1.45,1.64,1.83,1.71,1.73,1.74
407.76,0.27,-1.47,0.27,-1.47,1.45,1.67,1.87,1.72,1.72,1.74
411.84,0.27,-1.46,0.26,-1.47,1.45,1.70,1.91,1.72,1.72,1.73
415.96,0.27,-1.45,0.27,-1.46,1.46,1.72,1.94,1.72,1.72,1.72
420.12,0.27,-1.45,0.27,-1.45,1.46,1.75,1.98,1.72,1.72,1.72
424.32,0.27,-1.45,0.27,-1.45,1.46,1.78,2.02,1.73,1.73,1.72
428.56,0.27,-1.46,0.27,-1.46,1.46,1.81,2.05,1.73,1.73,1.73
432.85,0.27,-1.47,0.26,-1.47,1.47,1.84,2.09,1.74,1.73,1.74
437.18,0.26,-1.48,0.26,-1.48,1.49,1.87,2.12,1.74,1.74,1.74
441.55,0.25,-1.49,0.25,-1.50,1.51,1.90,2.16,1.75,1.75,1.74
445.96,0.25,-1.53,0.24,-1.53,1.53,1.93,2.20,1.78,1.77,1.78
450.42,0.23,-1.57,0.23,-1.56,1.56,1.96,2.23,1.79,1.79,1.80
454.93,0.23,-1.60,0.23,-1.60,1.60,1.99,2.26,1.82,1.83,1.82
459.48,0.23,-1.65,0.22,-1.64,1.64,2.02,2.30,1.86,1.86,1.87
464.07,0.23,-1.68,0.23,-1.68,1.68,2.05,2.33,1.91,1.91,1.90
468.71,0.23,-1.73,0.23,-1.73,1.73,2.09,2.36,1.95,1.95,1.95
473.40,0.23,-1.78,0.23,-1.77,1.78,2.12,2.39,2.00,2.00,2.00
478.13,0.23,-1.83,0.23,-1.83,1.83,2.16,2.42,2.06,2.06,2.05
482.91,0.23,-1.89,0.23,-1.89,1.89,2.19,2.44,2.11,2.11,2.11
487.74,0.23,-1.95,0.23,-1.95,1.95,2.23,2.47,2.17,2.17,2.17
492.62,0.23,-2.01,0.23,-2.01,2.01,2.26,2.49,2.24,2.24,2.23
497.55,0.23,-2.08,0.23,-2.07,2.08,2.30,2.51,2.30,2.30,2.30
502.52,0.23,-2.14,0.23,-2.14,2.14,2.33,2.53,2.37,2.37,2.36
507.55,0.23,-2.21,0.23,-2.21,2.21,2.37,2.55,2.44,2.44,2.44
512.62,0.23,-2.28,0.23,-2.28,2.28,2.41,2.56,2.50,2.50,2.51
517.75,0.23,-2.35,0.23,-2.35,2.34,2.45,2.58,2.57,2.57,2.58
522.93,0.23,-2.40,0.23,-2.41,2.41,2.49,2.59,2.63,2.63,2.63
528.16,0.23,-2.48,0.23,-2.48,2.47,2.53,2.60,2.70,2.70,2.71
533.44,0.23,-2.53,0.23,-2.54,2.54,2.57,2.61,2.76,2.76,2.76
538.77,0.23,-2.60,0.23,-2.60,2.61,2.61,2.62,2.83,2.83,2.83
544.16,0.23,-2.66,0.23,-2.66,2.68,2.65,2.63,2.90,2.90,2.89
