frequency,raw,error,smoothed,error_smoothed,equalization,parametric_eq,fixed_band_eq,equalized_raw,equalized_smoothed,target
20.00,-3.61,-3.31,-3.62,-3.32,3.33,2.79,0.79,-0.29,-0.30,-0.30
20.20,-3.58,-3.30,-3.58,-3.29,3.29,2.76,0.82,-0.30,-0.29,-0.28
20.40,-3.54,-3.26,-3.53,-3.25,3.25,2.74,0.84,-0.29,-0.28,-0.28
20.61,-3.48,-3.21,-3.49,-3.21,3.21,2.71,0.87,-0.28,-0.28,-0.27
20.81,-3.43,-3.15,-3.44,-3.16,3.17,2.68,0.89,-0.26,-0.27,-0.28
21.02,-3.39,-3.12,-3.39,-3.12,3.13,2.66,0.92,-0.26,-0.26,-0.27
21.23,-3.35,-3.08,-3.35,-3.08,3.09,2.63,0.95,-0.27,-0.26,-0.27
21.44,-3.30,-3.04,-3.31,-3.05,3.05,2.60,0.98,-0.26,-0.26,-0.26
21.66,-3.26,-3.01,-3.26,-3.01,3.00,2.57,1.01,-0.26,-0.26,-0.25
21.87,-3.21,-2.98,-3.21,-2.97,2.96,2.55,1.04,-0.26,-0.25,-0.23
22.09,-3.15,-2.92,-3.15,-2.92,2.91,2.52,1.07,-0.24,-0.24,-0.23
22.31,-3.09,-2.86,-3.10,-2.87,2.87,2.49,1.10,-0.22,-0.23,-0.23
22.54,-3.04,-2.81,-3.05,-2.81,2.83,2.46,1.14,-0.22,-0.22,-0.23
22.76,-3.01,-2.78,-3.01,-2.77,2.78,2.44,1.17,-0.23,-0.22,-0.23
22.99,-2.96,-2.73,-2.97,-2.73,2.74,2.41,1.21,-0.22,-0.23,-0.23
23.22,-2.93,-2.70,-2.94,-2.70,2.70,2.38,1.24,-0.23,-0.23,-0.23
23.45,-2.90,-2.67,-2.90,-2.67,2.66,2.35,1.28,-0.24,-0.24,-0.23
23.69,-2.87,-2.64,-2.87,-2.63,2.63,2.33,1.32,-0.24,-0.24,-0.24
23.92,-2.83,-2.60,-2.83,-2.59,2.59,2.30,1.36,-0.24,-0.24,-0.24
24.16,-2.78,-2.55,-2.79,-2.56,2.56,2.27,1.39,-0.23,-0.24,-0.24
24.40,-2.75,-2.52,-2.75,-2.52,2.52,2.25,1.43,-0.24,-0.24,-0.24
24.65,-2.72,-2.49,-2.72,-2.48,2.47,2.22,1.47,-0.25,-0.24,-0.24
24.89,-2.67,-2.44,-2.68,-2.44,2.43,2.19,1.51,-0.24,-0.25,-0.24
25.14,-2.63,-2.40,-2.63,-2.39,2.39,2.16,1.55,-0.25,-0.24,-0.24
25.39,-2.57,-2.33,-2.58,-2.34,2.34,2.14,1.59,-0.23,-0.23,-0.24
25.65,-2.52,-2.29,-2.53,-2.29,2.30,2.11,1.63,-0.22,-0.23,-0.24
25.91,-2.50,-2.26,-2.49,-2.25,2.27,2.08,1.68,-0.24,-0.23,-0.24
26.16,-2.46,-2.22,-2.47,-2.23,2.23,2.06,1.72,-0.23,-0.24,-0.24
26.43,-2.43,-2.19,-2.44,-2.20,2.20,2.03,1.76,-0.23,-0.24,-0.24
26.69,-2.42,-2.19,-2.41,-2.18,2.18,2.00,1.79,-0.25,-0.24,-0.23
26.96,-2.37,-2.14,-2.39,-2.15,2.15,1.98,1.83,-0.22,-0.23,-0.23
27.23,-2.37,-2.14,-2.37,-2.13,2.13,1.95,1.87,-0.24,-0.23,-0.23
27.50,-2.33,-2.10,-2.34,-2.11,2.11,1.93,1.91,-0.22,-0.23,-0.23
27.77,-2.33,-2.10,-2.33,-2.09,2.09,1.90,1.94,-0.25,-0.24,-0.23
28.05,-2.29,-2.06,-2.30,-2.07,2.06,1.87,1.97,-0.23,-0.24,-0.23
28.33,-2.28,-2.05,-2.28,-2.04,2.04,1.85,2.01,-0.25,-0.24,-0.24
28.62,-2.24,-2.01,-2.24,-2.01,2.01,1.82,2.04,-0.24,-0.24,-0.24
28.90,-2.20,-1.97,-2.21,-1.98,1.97,1.80,2.06,-0.23,-0.24,-0.24
29.19,-2.18,-1.95,-2.18,-1.94,1.94,1.77,2.09,-0.24,-0.24,-0.24
29.48,-2.14,-1.90,-2.14,-1.90,1.90,1.75,2.11,-0.24,-0.24,-0.24
29.78,-2.09,-1.85,-2.10,-1.86,1.86,1.73,2.13,-0.24,-0.24,-0.24
30.08,-2.05,-1.82,-2.05,-1.82,1.81,1.70,2.14,-0.24,-0.24,-0.23
30.38,-2.00,-1.77,-2.01,-1.77,1.77,1.68,2.16,-0.24,-0.24,-0.23
30.68,-1.96,-1.73,-1.96,-1.73,1.73,1.65,2.17,-0.24,-0.24,-0.23
30.99,-1.91,-1.68,-1.92,-1.68,1.69,1.63,2.17,-0.23,-0.23,-0.23
31.30,-1.87,-1.64,-1.87,-1.64,1.65,1.61,2.18,-0.22,-0.22,-0.24
31.61,-1.83,-1.60,-1.83,-1.60,1.62,1.58,2.18,-0.21,-0.21,-0.24
31.93,-1.80,-1.59,-1.81,-1.58,1.59,1.56,2.17,-0.21,-0.21,-0.22
32.24,-1.77,-1.55,-1.78,-1.57,1.57,1.54,2.17,-0.21,-0.21,-0.22
32.57,-1.76,-1.57,-1.75,-1.56,1.54,1.52,2.16,-0.22,-0.21,-0.19
32.89,-1.72,-1.54,-1.72,-1.53,1.52,1.50,2.15,-0.20,-0.20,-0.18
33.22,-1.68,-1.50,-1.69,-1.51,1.51,1.47,2.13,-0.18,-0.18,-0.18
33.55,-1.65,-1.47,-1.66,-1.48,1.49,1.45,2.11,-0.17,-0.18,-0.19
33.89,-1.64,-1.46,-1.64,-1.46,1.46,1.43,2.09,-0.18,-0.18,-0.19
34.23,-1.64,-1.45,-1.63,-1.44,1.44,1.41,2.07,-0.21,-0.19,-0.19
34.57,-1.59,-1.40,-1.60,-1.42,1.41,1.39,2.04,-0.18,-0.20,-0.19
34.92,-1.57,-1.39,-1.58,-1.39,1.38,1.37,2.02,-0.19,-0.20,-0.18
35.27,-1.54,-1.36,-1.54,-1.36,1.35,1.35,1.99,-0.19,-0.19,-0.18
35.62,-1.51,-1.33,-1.51,-1.32,1.32,1.33,1.96,-0.19,-0.18,-0.19
35.97,-1.46,-1.27,-1.47,-1.28,1.29,1.31,1.93,-0.17,-0.18,-0.19
36.33,-1.43,-1.24,-1.44,-1.25,1.26,1.29,1.90,-0.17,-0.18,-0.19
36.70,-1.42,-1.24,-1.41,-1.23,1.23,1.28,1.87,-0.19,-0.18,-0.18
37.06,-1.38,-1.20,-1.39,-1.20,1.20,1.26,1.83,-0.18,-0.19,-0.19
37.43,-1.36,-1.18,-1.36,-1.18,1.17,1.24,1.80,-0.19,-0.19,-0.19
37.81,-1.33,-1.14,-1.33,-1.15,1.14,1.22,1.77,-0.20,-0.19,-0.19
38.19,-1.30,-1.12,-1.31,-1.12,1.11,1.21,1.73,-0.20,-0.20,-0.18
38.57,-1.27,-1.09,-1.28,-1.08,1.08,1.19,1.70,-0.20,-0.20,-0.19
38.95,-1.25,-1.03,-1.25,-1.04,1.05,1.17,1.66,-0.21,-0.20,-0.22
39.34,-1.22,-1.00,-1.23,-1.00,1.02,1.16,1.63,-0.21,-0.21,-0.22
39.74,-1.20,-0.97,-1.21,-0.97,0.99,1.14,1.60,-0.21,-0.22,-0.23
40.14,-1.20,-0.97,-1.19,-0.96,0.96,1.12,1.57,-0.24,-0.23,-0.24
40.54,-1.16,-0.93,-1.18,-0.94,0.94,1.11,1.54,-0.22,-0.24,-0.23
40.94,-1.16,-0.93,-1.16,-0.93,0.92,1.10,1.51,-0.25,-0.24,-0.23
41.35,-1.15,-0.92,-1.15,-0.90,0.90,1.08,1.48,-0.26,-0.25,-0.24
41.76,-1.12,-0.87,-1.13,-0.88,0.87,1.07,1.45,-0.25,-0.26,-0.25
42.18,-1.12,-0.85,-1.12,-0.85,0.85,1.05,1.42,-0.28,-0.27,-0.28
42.60,-1.09,-0.81,-1.10,-0.82,0.82,1.04,1.39,-0.27,-0.28,-0.28
43.03,-1.07,-0.80,-1.07,-0.79,0.79,1.03,1.37,-0.28,-0.28,-0.27
43.46,-1.04,-0.76,-1.04,-0.76,0.76,1.02,1.34,-0.28,-0.28,-0.28
43.90,-0.99,-0.72,-1.01,-0.73,0.73,1.00,1.32,-0.26,-0.27,-0.27
44.33,-0.99,-0.72,-0.98,-0.70,0.71,0.99,1.30,-0.28,-0.27,-0.28
44.78,-0.94,-0.67,-0.96,-0.68,0.69,0.98,1.28,-0.26,-0.27,-0.27
45.23,-0.94,-0.67,-0.94,-0.67,0.67,0.97,1.26,-0.28,-0.28,-0.28
45.68,-0.94,-0.67,-0.93,-0.65,0.65,0.96,1.24,-0.29,-0.28,-0.27
46.13,-0.90,-0.63,-0.92,-0.64,0.64,0.95,1.22,-0.27,-0.28,-0.28
46.60,-0.90,-0.63,-0.91,-0.63,0.63,0.95,1.20,-0.28,-0.28,-0.27
47.06,-0.90,-0.62,-0.90,-0.62,0.62,0.94,1.19,-0.28,-0.28,-0.28
47.53,-0.90,-0.63,-0.90,-0.63,0.62,0.93,1.17,-0.28,-0.28,-0.28
48.01,-0.90,-0.63,-0.90,-0.62,0.63,0.93,1.16,-0.27,-0.27,-0.27
48.49,-0.90,-0.62,-0.90,-0.63,0.64,0.92,1.15,-0.26,-0.26,-0.28
48.97,-0.90,-0.65,-0.91,-0.65,0.66,0.92,1.13,-0.25,-0.26,-0.26
49.46,-0.93,-0.68,-0.93,-0.67,0.68,0.91,1.12,-0.26,-0.26,-0.25
49.96,-0.96,-0.70,-0.96,-0.70,0.70,0.91,1.11,-0.26,-0.26,-0.26
50.46,-0.99,-0.74,-1.00,-0.73,0.73,0.91,1.10,-0.26,-0.27,-0.26
50.96,-1.03,-0.76,-1.03,-0.76,0.76,0.91,1.09,-0.27,-0.27,-0.28
51.47,-1.07,-0.80,-1.07,-0.80,0.80,0.91,1.08,-0.28,-0.27,-0.27
51.99,-1.10,-0.83,-1.11,-0.83,0.83,0.92,1.07,-0.27,-0.27,-0.27
52.51,-1.14,-0.87,-1.14,-0.87,0.87,0.92,1.07,-0.27,-0.27,-0.27
53.03,-1.18,-0.90,-1.19,-0.91,0.91,0.93,1.06,-0.27,-0.28,-0.28
53.56,-1.24,-0.95,-1.24,-0.95,0.95,0.94,1.05,-0.29,-0.29,-0.29
54.10,-1.30,-0.98,-1.30,-0.98,0.99,0.96,1.05,-0.31,-0.31,-0.32
54.64,-1.34,-1.02,-1.35,-1.03,1.02,0.97,1.04,-0.32,-0.33,-0.32
55.18,-1.38,-1.06,-1.39,-1.07,1.05,0.99,1.03,-0.33,-0.33,-0.32
55.74,-1.42,-1.11,-1.41,-1.09,1.08,1.01,1.03,-0.34,-0.33,-0.31
56.29,-1.42,-1.11,-1.43,-1.11,1.11,1.04,1.02,-0.32,-0.32,-0.31
56.86,-1.42,-1.11,-1.44,-1.12,1.13,1.07,1.01,-0.30,-0.31,-0.31
57.42,-1.46,-1.15,-1.45,-1.14,1.15,1.11,1.01,-0.32,-0.30,-0.32
58.00,-1.46,-1.16,-1.46,-1.16,1.17,1.15,1.00,-0.30,-0.30,-0.31
58.58,-1.46,-1.19,-1.47,-1.18,1.18,1.20,0.99,-0.28,-0.29,-0.27
59.16,-1.46,-1.19,-1.46,-1.20,1.20,1.25,0.99,-0.26,-0.26,-0.27
59.76,-1.46,-1.23,-1.46,-1.22,1.22,1.31,0.98,-0.24,-0.24,-0.24
60.35,-1.46,-1.25,-1.46,-1.25,1.25,1.38,0.97,-0.21,-0.21,-0.21
60.96,-1.46,-1.28,-1.46,-1.28,1.28,1.45,0.96,-0.18,-0.18,-0.19
61.57,-1.46,-1.31,-1.46,-1.30,1.32,1.53,0.95,-0.15,-0.14,-0.15
62.18,-1.46,-1.34,-1.46,-1.34,1.35,1.61,0.94,-0.11,-0.11,-0.13
62.80,-1.46,-1.37,-1.48,-1.39,1.39,1.69,0.93,-0.07,-0.09,-0.09
63.43,-1.50,-1.44,-1.49,-1.43,1.43,1.76,0.91,-0.07,-0.06,-0.06
64.07,-1.51,-1.48,-1.51,-1.47,1.47,1.81,0.90,-0.05,-0.04,-0.04
64.71,-1.51,-1.50,-1.52,-1.51,1.50,1.85,0.89,-0.01,-0.02,-0.01
65.35,-1.51,-1.52,-1.52,-1.53,1.53,1.86,0.87,0.02,0.01,0.01
66.01,-1.53,-1.55,-1.53,-1.54,1.55,1.85,0.86,0.01,0.02,0.02
66.67,-1.53,-1.55,-1.53,-1.55,1.55,1.81,0.84,0.02,0.02,0.02
67.33,-1.51,-1.53,-1.52,-1.55,1.54,1.75,0.82,0.03,0.02,0.02
68.01,-1.49,-1.54,-1.48,-1.53,1.52,1.67,0.81,0.02,0.03,0.05
68.69,-1.42,-1.49,-1.43,-1.49,1.47,1.57,0.79,0.05,0.04,0.07
69.37,-1.36,-1.44,-1.36,-1.43,1.42,1.47,0.77,0.05,0.06,0.08
70.07,-1.26,-1.34,-1.27,-1.35,1.35,1.37,0.75,0.08,0.07,0.08
70.77,-1.18,-1.26,-1.19,-1.26,1.27,1.28,0.73,0.08,0.08,0.07
71.48,-1.10,-1.18,-1.09,-1.17,1.18,1.19,0.71,0.08,0.09,0.07
72.19,-0.99,-1.07,-1.00,-1.08,1.09,1.10,0.69,0.09,0.08,0.08
72.91,-0.90,-0.98,-0.91,-0.98,0.99,1.02,0.67,0.09,0.08,0.07
73.64,-0.83,-0.90,-0.82,-0.89,0.89,0.95,0.65,0.06,0.07,0.07
74.38,-0.73,-0.81,-0.74,-0.81,0.80,0.89,0.63,0.06,0.06,0.07
75.12,-0.65,-0.73,-0.65,-0.73,0.71,0.83,0.61,0.06,0.06,0.08
75.87,-0.57,-0.64,-0.57,-0.63,0.64,0.78,0.59,0.06,0.07,0.07
76.63,-0.49,-0.54,-0.49,-0.55,0.57,0.73,0.57,0.08,0.08,0.04
77.40,-0.42,-0.47,-0.43,-0.48,0.51,0.69,0.55,0.09,0.08,0.05
78.17,-0.38,-0.43,-0.39,-0.43,0.46,0.65,0.52,0.08,0.07,0.05
78.95,-0.38,-0.41,-0.38,-0.41,0.42,0.62,0.50,0.03,0.04,0.03
79.74,-0.38,-0.40,-0.38,-0.40,0.38,0.59,0.48,-0.00,0.00,0.02
80.54,-0.36,-0.38,-0.36,-0.38,0.34,0.56,0.46,-0.02,-0.01,0.02
81.35,-0.31,-0.34,-0.31,-0.34,0.31,0.53,0.44,-0.00,-0.00,0.03
82.16,-0.26,-0.29,-0.26,-0.29,0.28,0.51,0.42,0.02,0.02,0.03
82.98,-0.20,-0.23,-0.21,-0.24,0.25,0.49,0.40,0.04,0.04,0.03
83.81,-0.17,-0.20,-0.17,-0.20,0.21,0.46,0.38,0.04,0.04,0.02
84.65,-0.14,-0.16,-0.14,-0.16,0.17,0.45,0.36,0.03,0.03,0.02
85.50,-0.11,-0.14,-0.11,-0.14,0.14,0.43,0.34,0.02,0.03,0.03
86.35,-0.08,-0.11,-0.09,-0.11,0.11,0.41,0.32,0.02,0.02,0.02
87.22,-0.05,-0.08,-0.05,-0.08,0.08,0.40,0.30,0.02,0.02,0.03
88.09,-0.03,-0.06,-0.03,-0.05,0.05,0.38,0.29,0.02,0.02,0.02
88.97,0.01,-0.02,-0.01,-0.03,0.03,0.37,0.27,0.03,0.02,0.03
89.86,0.01,-0.02,0.02,-0.01,0.00,0.36,0.25,0.01,0.02,0.02
90.76,0.05,0.02,0.04,0.02,-0.02,0.35,0.23,0.02,0.02,0.03
91.66,0.07,0.05,0.06,0.04,-0.04,0.34,0.21,0.02,0.02,0.02
92.58,0.10,0.07,0.09,0.07,-0.06,0.33,0.19,0.03,0.03,0.02
93.51,0.10,0.07,0.11,0.09,-0.08,0.32,0.18,0.02,0.03,0.03
94.44,0.14,0.11,0.13,0.10,-0.09,0.31,0.16,0.04,0.03,0.03
95.39,0.14,0.12,0.13,0.11,-0.10,0.30,0.14,0.03,0.03,0.02
96.34,0.14,0.11,0.14,0.12,-0.11,0.29,0.12,0.02,0.03,0.02
97.30,0.14,0.11,0.13,0.11,-0.12,0.28,0.11,0.02,0.01,0.02
98.28,0.14,0.11,0.14,0.11,-0.13,0.27,0.09,0.01,0.01,0.02
99.26,0.14,0.11,0.15,0.12,-0.13,0.27,0.07,0.01,0.02,0.03
100.25,0.18,0.15,0.16,0.14,-0.13,0.26,0.06,0.04,0.03,0.03
101.25,0.18,0.15,0.17,0.14,-0.14,0.25,0.04,0.04,0.04,0.03
102.27,0.18,0.15,0.19,0.15,-0.14,0.24,0.02,0.04,0.05,0.03
103.29,0.20,0.13,0.20,0.15,-0.14,0.24,0.01,0.05,0.06,0.07
104.32,0.23,0.16,0.21,0.14,-0.15,0.23,-0.01,0.08,0.07,0.07
105.37,0.23,0.16,0.23,0.14,-0.15,0.23,-0.02,0.08,0.08,0.07
106.42,0.23,0.12,0.24,0.15,-0.14,0.22,-0.04,0.08,0.10,0.11
107.48,0.27,0.15,0.25,0.14,-0.14,0.22,-0.05,0.12,0.11,0.11
108.56,0.27,0.15,0.27,0.14,-0.14,0.21,-0.07,0.12,0.12,0.11
109.64,0.27,0.13,0.28,0.15,-0.14,0.20,-0.08,0.12,0.14,0.13
110.74,0.31,0.15,0.29,0.15,-0.15,0.20,-0.09,0.16,0.15,0.15
111.85,0.31,0.15,0.30,0.15,-0.15,0.20,-0.11,0.15,0.15,0.15
112.97,0.31,0.15,0.31,0.15,-0.16,0.19,-0.12,0.14,0.15,0.16
114.10,0.31,0.15,0.31,0.16,-0.17,0.19,-0.13,0.13,0.14,0.16
115.24,0.33,0.18,0.33,0.18,-0.18,0.18,-0.14,0.14,0.15,0.15
116.39,0.36,0.20,0.35,0.19,-0.19,0.18,-0.15,0.16,0.15,0.15
117.55,0.36,0.20,0.36,0.20,-0.20,0.17,-0.17,0.16,0.16,0.15
118.73,0.36,0.20,0.36,0.21,-0.20,0.17,-0.18,0.16,0.16,0.16
119.92,0.36,0.21,0.36,0.21,-0.19,0.17,-0.19,0.16,0.17,0.15
121.12,0.36,0.20,0.35,0.19,-0.18,0.16,-0.20,0.18,0.17,0.15
122.33,0.36,0.18,0.34,0.16,-0.16,0.16,-0.20,0.20,0.18,0.18
123.55,0.31,0.11,0.32,0.14,-0.14,0.15,-0.21,0.17,0.19,0.20
124.79,0.31,0.10,0.31,0.11,-0.11,0.15,-0.22,0.19,0.20,0.20
126.03,0.31,0.11,0.29,0.08,-0.09,0.15,-0.23,0.22,0.21,0.20
127.29,0.29,0.05,0.28,0.06,-0.07,0.14,-0.23,0.22,0.21,0.24
128.57,0.27,0.03,0.28,0.04,-0.05,0.14,-0.24,0.22,0.23,0.24
129.85,0.27,0.02,0.28,0.02,-0.03,0.14,-0.24,0.23,0.24,0.25
131.15,0.31,0.04,0.29,0.03,-0.02,0.14,-0.25,0.29,0.27,0.26
132.46,0.31,0.02,0.31,0.03,-0.01,0.13,-0.25,0.30,0.30,0.28
133.79,0.31,0.03,0.31,0.02,-0.00,0.13,-0.26,0.30,0.31,0.28
135.12,0.31,0.02,0.29,0.00,-0.00,0.13,-0.26,0.31,0.29,0.29
136.48,0.27,-0.02,0.28,-0.01,-0.01,0.12,-0.26,0.26,0.28,0.29
137.84,0.27,-0.02,0.28,-0.01,-0.02,0.12,-0.27,0.25,0.26,0.29
139.22,0.31,0.02,0.29,0.00,-0.03,0.12,-0.27,0.28,0.26,0.29
140.61,0.31,0.02,0.31,0.04,-0.05,0.12,-0.27,0.26,0.27,0.29
142.02,0.34,0.09,0.33,0.07,-0.07,0.11,-0.27,0.27,0.27,0.25
143.44,0.36,0.11,0.35,0.11,-0.09,0.11,-0.28,0.27,0.26,0.24
144.87,0.37,0.12,0.37,0.13,-0.11,0.11,-0.28,0.26,0.26,0.24
146.32,0.40,0.15,0.39,0.13,-0.13,0.11,-0.28,0.27,0.26,0.25
147.78,0.40,0.11,0.41,0.14,-0.14,0.10,-0.28,0.26,0.27,0.28
149.26,0.44,0.15,0.43,0.14,-0.13,0.10,-0.28,0.30,0.29,0.29
150.75,0.44,0.15,0.43,0.13,-0.12,0.10,-0.29,0.31,0.31,0.28
152.26,0.44,0.10,0.44,0.13,-0.11,0.10,-0.29,0.33,0.33,0.34
153.78,0.44,0.10,0.44,0.10,-0.10,0.10,-0.29,0.34,0.34,0.33
155.32,0.44,0.11,0.44,0.08,-0.09,0.09,-0.29,0.35,0.35,0.33
156.88,0.44,0.06,0.43,0.07,-0.08,0.09,-0.29,0.35,0.35,0.38
158.44,0.44,0.06,0.44,0.07,-0.09,0.09,-0.30,0.35,0.35,0.38
160.03,0.45,0.10,0.45,0.09,-0.10,0.09,-0.30,0.34,0.35,0.34
161.63,0.47,0.13,0.46,0.14,-0.14,0.09,-0.30,0.33,0.32,0.33
163.24,0.47,0.20,0.47,0.19,-0.19,0.08,-0.30,0.27,0.27,0.26
164.88,0.47,0.25,0.47,0.25,-0.27,0.08,-0.31,0.19,0.20,0.21
166.53,0.47,0.32,0.47,0.34,-0.37,0.08,-0.31,0.10,0.10,0.14
168.19,0.47,0.44,0.47,0.45,-0.48,0.08,-0.31,-0.01,-0.01,0.03
169.87,0.47,0.59,0.46,0.58,-0.60,0.08,-0.32,-0.13,-0.13,-0.12
171.57,0.47,0.74,0.46,0.72,-0.72,0.07,-0.32,-0.25,-0.26,-0.27
173.29,0.44,0.83,0.45,0.85,-0.84,0.07,-0.33,-0.40,-0.39,-0.40
175.02,0.44,0.97,0.44,0.97,-0.95,0.07,-0.33,-0.51,-0.51,-0.53
176.77,0.44,1.07,0.44,1.06,-1.04,0.07,-0.34,-0.60,-0.60,-0.63
178.54,0.45,1.13,0.45,1.14,-1.11,0.07,-0.34,-0.66,-0.66,-0.69
180.32,0.47,1.17,0.47,1.17,-1.14,0.07,-0.35,-0.68,-0.68,-0.70
182.13,0.49,1.19,0.48,1.18,-1.16,0.07,-0.35,-0.67,-0.68,-0.71
183.95,0.49,1.16,0.49,1.16,-1.14,0.06,-0.36,-0.66,-0.66,-0.67
185.79,0.49,1.11,0.49,1.11,-1.11,0.06,-0.36,-0.62,-0.62,-0.62
187.65,0.49,1.04,0.49,1.05,-1.07,0.06,-0.37,-0.58,-0.58,-0.56
189.52,0.49,1.01,0.49,0.99,-1.01,0.06,-0.38,-0.53,-0.53,-0.52
191.42,0.49,0.93,0.49,0.93,-0.95,0.06,-0.39,-0.47,-0.47,-0.44
193.33,0.49,0.87,0.48,0.88,-0.89,0.06,-0.39,-0.41,-0.41,-0.38
195.27,0.49,0.83,0.49,0.83,-0.84,0.06,-0.40,-0.35,-0.35,-0.35
197.22,0.49,0.78,0.49,0.79,-0.78,0.05,-0.41,-0.30,-0.29,-0.30
199.19,0.51,0.74,0.50,0.74,-0.73,0.05,-0.42,-0.22,-0.23,-0.24
201.18,0.51,0.69,0.50,0.68,-0.68,0.05,-0.42,-0.17,-0.18,-0.18
203.19,0.50,0.62,0.50,0.63,-0.63,0.05,-0.43,-0.13,-0.13,-0.12
205.23,0.49,0.58,0.49,0.57,-0.57,0.05,-0.44,-0.09,-0.08,-0.09
207.28,0.49,0.52,0.49,0.52,-0.52,0.05,-0.45,-0.03,-0.03,-0.04
209.35,0.49,0.46,0.49,0.47,-0.46,0.05,-0.46,0.02,0.02,0.02
211.44,0.49,0.40,0.49,0.41,-0.41,0.05,-0.46,0.08,0.08,0.08
213.56,0.49,0.35,0.49,0.34,-0.35,0.05,-0.47,0.14,0.14,0.13
215.69,0.49,0.29,0.49,0.29,-0.29,0.04,-0.48,0.20,0.20,0.20
217.85,0.49,0.22,0.49,0.23,-0.23,0.04,-0.49,0.26,0.26,0.27
220.03,0.49,0.19,0.49,0.18,-0.16,0.04,-0.49,0.32,0.32,0.30
222.23,0.49,0.13,0.48,0.13,-0.10,0.04,-0.50,0.39,0.38,0.35
224.45,0.47,0.06,0.47,0.07,-0.03,0.04,-0.51,0.43,0.43,0.41
226.70,0.45,0.01,0.45,-0.00,0.02,0.04,-0.51,0.47,0.47,0.44
228.96,0.44,-0.07,0.44,-0.06,0.06,0.04,-0.52,0.49,0.50,0.50
231.25,0.44,-0.10,0.43,-0.10,0.07,0.04,-0.52,0.51,0.51,0.54
233.57,0.44,-0.10,0.44,-0.10,0.06,0.04,-0.52,0.50,0.50,0.54
235.90,0.44,-0.07,0.44,-0.06,0.01,0.04,-0.53,0.45,0.45,0.50
238.26,0.45,0.02,0.44,0.02,-0.08,0.04,-0.53,0.37,0.37,0.43
240.64,0.45,0.15,0.45,0.15,-0.19,0.03,-0.53,0.25,0.25,0.29
243.05,0.44,0.31,0.44,0.32,-0.34,0.03,-0.53,0.10,0.10,0.13
245.48,0.44,0.50,0.42,0.49,-0.49,0.03,-0.53,-0.06,-0.07,-0.07
247.93,0.40,0.66,0.41,0.67,-0.65,0.03,-0.53,-0.25,-0.23,-0.26
250.41,0.40,0.82,0.40,0.83,-0.78,0.03,-0.52,-0.38,-0.38,-0.43
252.92,0.40,0.98,0.38,0.95,-0.89,0.03,-0.52,-0.49,-0.51,-0.58
255.45,0.36,1.00,0.37,1.01,-0.96,0.03,-0.51,-0.60,-0.59,-0.65
258.00,0.36,1.03,0.36,1.03,-0.99,0.03,-0.51,-0.63,-0.63,-0.67
260.58,0.36,0.98,0.36,0.99,-0.98,0.03,-0.50,-0.63,-0.63,-0.62
263.19,0.38,0.96,0.37,0.94,-0.94,0.03,-0.49,-0.57,-0.57,-0.58
265.82,0.38,0.84,0.38,0.86,-0.88,0.03,-0.49,-0.50,-0.49,-0.46
268.48,0.40,0.78,0.39,0.78,-0.79,0.03,-0.48,-0.39,-0.40,-0.39
271.16,0.40,0.69,0.40,0.68,-0.69,0.02,-0.47,-0.30,-0.30,-0.29
273.87,0.40,0.58,0.40,0.58,-0.59,0.02,-0.46,-0.19,-0.19,-0.18
276.61,0.40,0.47,0.40,0.47,-0.48,0.02,-0.44,-0.09,-0.09,-0.08
279.38,0.40,0.37,0.40,0.37,-0.38,0.02,-0.43,0.02,0.02,0.03
282.17,0.40,0.27,0.40,0.27,-0.27,0.02,-0.42,0.13,0.13,0.13
284.99,0.40,0.16,0.40,0.16,-0.16,0.02,-0.41,0.23,0.23,0.23
287.84,0.40,0.06,0.40,0.06,-0.06,0.02,-0.39,0.34,0.34,0.33
290.72,0.40,-0.04,0.40,-0.05,0.05,0.02,-0.38,0.44,0.44,0.44
293.63,0.40,-0.15,0.40,-0.15,0.15,0.02,-0.36,0.55,0.55,0.55
296.57,0.40,-0.25,0.40,-0.24,0.25,0.02,-0.35,0.65,0.65,0.64
299.53,0.40,-0.33,0.40,-0.33,0.35,0.02,-0.33,0.75,0.75,0.72
302.53,0.40,-0.42,0.39,-0.42,0.45,0.02,-0.32,0.84,0.84,0.82
305.55,0.40,-0.50,0.40,-0.51,0.53,0.02,-0.30,0.92,0.93,0.90
308.61,0.40,-0.59,0.41,-0.57,0.58,0.02,-0.28,0.98,0.99,0.98
311.69,0.44,-0.61,0.43,-0.62,0.61,0.02,-0.27,1.04,1.03,1.04
314.81,0.44,-0.62,0.43,-0.62,0.58,0.01,-0.25,1.02,1.02,1.06
317.96,0.44,-0.59,0.43,-0.59,0.51,0.01,-0.23,0.95,0.94,1.03
321.14,0.41,-0.48,0.42,-0.48,0.38,0.01,-0.22,0.79,0.80,0.89
324.35,0.40,-0.33,0.40,-0.31,0.21,0.01,-0.20,0.61,0.61,0.73
327.59,0.40,-0.06,0.38,-0.07,0.01,0.01,-0.18,0.41,0.39,0.45
330.87,0.36,0.19,0.37,0.20,-0.20,0.01,-0.17,0.16,0.18,0.16
334.18,0.36,0.47,0.36,0.47,-0.39,0.01,-0.15,-0.04,-0.04,-0.11
337.52,0.36,0.70,0.34,0.67,-0.56,0.01,-0.13,-0.20,-0.22,-0.34
340.90,0.31,0.80,0.32,0.80,-0.67,0.01,-0.12,-0.37,-0.35,-0.49
344.30,0.31,0.83,0.31,0.83,-0.73,0.01,-0.10,-0.42,-0.42,-0.52
347.75,0.31,0.78,0.30,0.78,-0.73,0.01,-0.08,-0.42,-0.42,-0.47
351.23,0.31,0.68,0.31,0.69,-0.68,0.01,-0.07,-0.37,-0.37,-0.38
354.74,0.31,0.58,0.31,0.58,-0.59,0.01,-0.05,-0.29,-0.29,-0.28
358.28,0.31,0.47,0.31,0.47,-0.51,0.01,-0.03,-0.20,-0.20,-0.17
361.87,0.31,0.37,0.31,0.37,-0.44,0.01,-0.02,-0.13,-0.13,-0.06
365.49,0.31,0.31,0.31,0.31,-0.41,0.01,-0.00,-0.10,-0.10,-0.00
369.14,0.31,0.30,0.31,0.32,-0.42,0.01,0.02,-0.11,-0.11,0.01
372.83,0.31,0.39,0.31,0.38,-0.46,0.01,0.03,-0.15,-0.15,-0.08
376.56,0.31,0.49,0.31,0.49,-0.53,0.00,0.05,-0.22,-0.22,-0.18
380.33,0.31,0.62,0.31,0.63,-0.60,0.00,0.06,-0.30,-0.30,-0.31
384.13,0.31,0.74,0.31,0.74,-0.67,0.00,0.08,-0.36,-0.36,-0.44
387.97,0.31,0.82,0.31,0.81,-0.71,0.00,0.10,-0.40,-0.40,-0.52
391.85,0.31,0.81,0.31,0.81,-0.72,0.00,0.11,-0.41,-0.41,-0.51
395.77,0.31,0.74,0.30,0.74,-0.69,0.00,0.13,-0.38,-0.38,-0.44
399.73,0.31,0.63,0.29,0.62,-0.61,0.00,0.14,-0.31,-0.32,-0.32
403.72,0.27,0.48,0.28,0.48,-0.51,0.00,0.16,-0.24,-0.23,-0.21
407.76,0.27,0.34,0.27,0.34,-0.37,-0.00,0.17,-0.11,-0.11,-0.07
411.84,0.27,0.21,0.26,0.20,-0.23,-0.00,0.19,0.04,0.03,0.06
415.96,0.27,0.08,0.27,0.07,-0.08,-0.00,0.20,0.18,0.18,0.19
420.12,0.27,-0.07,0.27,-0.06,0.05,-0.00,0.22,0.32,0.32,0.34
424.32,0.27,-0.18,0.27,-0.18,0.18,-0.00,0.23,0.45,0.45,0.45
428.56,0.27,-0.30,0.27,-0.30,0.29,-0.00,0.24,0.56,0.56,0.57
432.85,0.27,-0.39,0.26,-0.40,0.38,-0.00,0.26,0.65,0.65,0.66
437.18,0.26,-0.49,0.26,-0.48,0.46,-0.00,0.27,0.72,0.72,0.75
441.55,0.25,-0.56,0.25,-0.56,0.53,-0.00,0.28,0.78,0.78,0.81
445.96,0.25,-0.61,0.24,-0.61,0.59,-0.01,0.29,0.83,0.83,0.85
450.42,0.23,-0.66,0.23,-0.65,0.64,-0.01,0.30,0.87,0.88,0.88
454.93,0.23,-0.69,0.23,-0.69,0.71,-0.01,0.31,0.93,0.93,0.91
459.48,0.23,-0.74,0.22,-0.74,0.78,-0.01,0.32,1.01,1.00,0.96
464.07,0.23,-0.82,0.23,-0.81,0.87,-0.01,0.33,1.10,1.10,1.04
468.71,0.23,-0.92,0.23,-0.92,0.99,-0.01,0.33,1.21,1.21,1.14
473.40,0.23,-1.05,0.23,-1.05,1.12,-0.01,0.34,1.34,1.34,1.27
478.13,0.23,-1.21,0.23,-1.20,1.25,-0.01,0.34,1.48,1.48,1.43
482.91,0.23,-1.36,0.23,-1.35,1.37,-0.01,0.35,1.59,1.59,1.58
487.74,0.23,-1.48,0.23,-1.49,1.45,-0.01,0.35,1.67,1.67,1.70
492.62,0.23,-1.57,0.23,-1.57,1.47,-0.01,0.35,1.69,1.69,1.80
497.55,0.23,-1.59,0.23,-1.56,1.42,-0.01,0.35,1.65,1.65,1.82
502.52,0.23,-1.45,0.23,-1.45,1.31,-0.01,0.35,1.54,1.54,1.68
