frequency,raw,error,smoothed,error_smoothed,equalization,parametric_eq,fixed_band_eq,equalized_raw,equalized_smoothed,target
20.00,-3.61,-3.17,-3.62,-3.18,3.18,2.85,0.77,-0.44,-0.44,-0.44
20.20,-3.58,-3.15,-3.58,-3.15,3.15,2.82,0.79,-0.44,-0.43,-0.43
20.40,-3.54,-3.11,-3.53,-3.11,3.12,2.79,0.82,-0.43,-0.42,-0.43
20.61,-3.48,-3.08,-3.49,-3.08,3.08,2.76,0.84,-0.40,-0.41,-0.40
20.81,-3.43,-3.04,-3.44,-3.04,3.05,2.73,0.87,-0.39,-0.39,-0.39
21.02,-3.39,-3.00,-3.39,-3.01,3.01,2.71,0.89,-0.39,-0.38,-0.39
21.23,-3.35,-2.98,-3.35,-2.98,2.97,2.68,0.92,-0.39,-0.38,-0.37
21.44,-3.30,-2.94,-3.31,-2.95,2.93,2.65,0.95,-0.38,-0.38,-0.36
21.66,-3.26,-2.91,-3.26,-2.90,2.88,2.62,0.98,-0.38,-0.38,-0.35
21.87,-3.21,-2.85,-3.21,-2.84,2.83,2.59,1.01,-0.38,-0.37,-0.36
22.09,-3.15,-2.77,-3.15,-2.78,2.79,2.56,1.04,-0.37,-0.37,-0.38
22.31,-3.09,-2.71,-3.10,-2.72,2.74,2.53,1.07,-0.35,-0.36,-0.38
22.54,-3.04,-2.68,-3.05,-2.68,2.70,2.50,1.11,-0.35,-0.35,-0.36
22.76,-3.01,-2.66,-3.01,-2.65,2.65,2.47,1.14,-0.36,-0.35,-0.35
22.99,-2.96,-2.61,-2.97,-2.62,2.61,2.44,1.17,-0.35,-0.35,-0.35
23.22,-2.93,-2.58,-2.94,-2.58,2.58,2.41,1.21,-0.36,-0.36,-0.36
23.45,-2.90,-2.55,-2.90,-2.55,2.54,2.38,1.24,-0.36,-0.36,-0.36
23.69,-2.87,-2.52,-2.87,-2.52,2.51,2.36,1.28,-0.37,-0.36,-0.36
23.92,-2.83,-2.48,-2.83,-2.47,2.47,2.33,1.32,-0.37,-0.36,-0.36
24.16,-2.78,-2.43,-2.79,-2.43,2.42,2.30,1.36,-0.36,-0.37,-0.36
24.40,-2.75,-2.37,-2.75,-2.38,2.38,2.27,1.40,-0.38,-0.38,-0.39
24.65,-2.72,-2.34,-2.72,-2.33,2.33,2.24,1.43,-0.39,-0.39,-0.39
24.89,-2.67,-2.29,-2.68,-2.29,2.28,2.21,1.47,-0.39,-0.39,-0.39
25.14,-2.63,-2.24,-2.63,-2.24,2.24,2.18,1.51,-0.40,-0.39,-0.39
25.39,-2.57,-2.18,-2.58,-2.19,2.19,2.15,1.55,-0.38,-0.39,-0.39
25.65,-2.52,-2.13,-2.53,-2.14,2.15,2.12,1.59,-0.38,-0.39,-0.39
25.91,-2.50,-2.11,-2.49,-2.10,2.11,2.10,1.63,-0.40,-0.38,-0.39
26.16,-2.46,-2.07,-2.47,-2.08,2.08,2.07,1.67,-0.39,-0.39,-0.39
26.43,-2.43,-2.04,-2.44,-2.05,2.05,2.04,1.71,-0.39,-0.39,-0.39
26.69,-2.42,-2.03,-2.41,-2.02,2.03,2.01,1.75,-0.40,-0.39,-0.39
26.96,-2.37,-1.98,-2.39,-2.00,2.01,1.99,1.79,-0.36,-0.38,-0.39
27.23,-2.37,-1.99,-2.37,-1.99,2.00,1.96,1.83,-0.38,-0.37,-0.38
27.50,-2.33,-1.98,-2.34,-1.98,1.98,1.93,1.86,-0.35,-0.36,-0.35
27.77,-2.33,-1.99,-2.33,-1.98,1.97,1.90,1.90,-0.36,-0.36,-0.34
28.05,-2.29,-1.96,-2.30,-1.97,1.95,1.88,1.93,-0.34,-0.35,-0.34
28.33,-2.28,-1.95,-2.28,-1.94,1.93,1.85,1.96,-0.35,-0.34,-0.34
28.62,-2.24,-1.91,-2.24,-1.91,1.91,1.82,1.99,-0.34,-0.34,-0.34
28.90,-2.20,-1.87,-2.21,-1.88,1.87,1.80,2.02,-0.33,-0.34,-0.34
29.19,-2.18,-1.84,-2.18,-1.84,1.84,1.77,2.05,-0.35,-0.34,-0.34
29.48,-2.14,-1.80,-2.14,-1.80,1.79,1.75,2.07,-0.35,-0.35,-0.34
29.78,-2.09,-1.75,-2.10,-1.75,1.75,1.72,2.09,-0.34,-0.35,-0.34
30.08,-2.05,-1.69,-2.05,-1.70,1.71,1.69,2.10,-0.35,-0.35,-0.36
30.38,-2.00,-1.64,-2.01,-1.65,1.66,1.67,2.12,-0.34,-0.35,-0.36
30.68,-1.96,-1.63,-1.96,-1.62,1.62,1.65,2.13,-0.35,-0.34,-0.33
30.99,-1.91,-1.58,-1.92,-1.58,1.58,1.62,2.14,-0.34,-0.34,-0.34
31.30,-1.87,-1.54,-1.87,-1.54,1.54,1.60,2.14,-0.34,-0.34,-0.34
31.61,-1.83,-1.50,-1.83,-1.50,1.50,1.57,2.15,-0.33,-0.33,-0.34
31.93,-1.80,-1.47,-1.81,-1.47,1.47,1.55,2.14,-0.34,-0.34,-0.34
32.24,-1.77,-1.43,-1.78,-1.44,1.44,1.53,2.14,-0.33,-0.34,-0.34
32.57,-1.76,-1.42,-1.75,-1.41,1.42,1.50,2.13,-0.35,-0.34,-0.34
32.89,-1.72,-1.39,-1.72,-1.39,1.40,1.48,2.12,-0.33,-0.32,-0.33
33.22,-1.68,-1.37,-1.69,-1.38,1.38,1.46,2.11,-0.30,-0.31,-0.31
33.55,-1.65,-1.37,-1.66,-1.37,1.36,1.44,2.09,-0.29,-0.30,-0.29
33.89,-1.64,-1.36,-1.64,-1.35,1.35,1.41,2.07,-0.29,-0.29,-0.29
34.23,-1.64,-1.35,-1.63,-1.34,1.34,1.39,2.05,-0.31,-0.29,-0.29
34.57,-1.59,-1.30,-1.60,-1.33,1.32,1.37,2.03,-0.27,-0.28,-0.29
34.92,-1.57,-1.32,-1.58,-1.31,1.31,1.35,2.01,-0.27,-0.27,-0.25
35.27,-1.54,-1.30,-1.54,-1.29,1.29,1.33,1.98,-0.25,-0.25,-0.25
35.62,-1.51,-1.27,-1.51,-1.28,1.27,1.31,1.95,-0.24,-0.23,-0.25
35.97,-1.46,-1.26,-1.47,-1.26,1.26,1.29,1.93,-0.21,-0.21,-0.20
36.33,-1.43,-1.23,-1.44,-1.24,1.24,1.27,1.90,-0.19,-0.20,-0.20
36.70,-1.42,-1.23,-1.41,-1.22,1.22,1.25,1.87,-0.20,-0.19,-0.19
37.06,-1.38,-1.19,-1.39,-1.20,1.21,1.23,1.83,-0.18,-0.18,-0.20
37.43,-1.36,-1.19,-1.36,-1.19,1.19,1.21,1.80,-0.18,-0.18,-0.18
37.81,-1.33,-1.18,-1.33,-1.17,1.17,1.19,1.77,-0.17,-0.16,-0.15
38.19,-1.30,-1.16,-1.31,-1.16,1.15,1.17,1.74,-0.16,-0.16,-0.14
38.57,-1.27,-1.13,-1.28,-1.13,1.13,1.16,1.71,-0.15,-0.15,-0.15
38.95,-1.25,-1.10,-1.25,-1.10,1.11,1.14,1.68,-0.15,-0.14,-0.15
39.34,-1.22,-1.07,-1.23,-1.08,1.09,1.12,1.65,-0.14,-0.14,-0.15
39.74,-1.20,-1.06,-1.21,-1.06,1.07,1.11,1.62,-0.14,-0.14,-0.15
40.14,-1.20,-1.06,-1.19,-1.04,1.05,1.09,1.59,-0.16,-0.14,-0.15
40.54,-1.16,-1.01,-1.18,-1.03,1.03,1.07,1.56,-0.13,-0.15,-0.15
40.94,-1.16,-1.02,-1.16,-1.01,1.01,1.06,1.53,-0.15,-0.15,-0.15
41.35,-1.15,-1.00,-1.15,-1.00,1.00,1.04,1.50,-0.16,-0.15,-0.15
41.76,-1.12,-0.97,-1.13,-0.99,0.98,1.03,1.47,-0.14,-0.15,-0.15
42.18,-1.12,-0.98,-1.12,-0.97,0.96,1.01,1.45,-0.16,-0.16,-0.15
42.60,-1.09,-0.94,-1.10,-0.95,0.94,1.00,1.42,-0.15,-0.16,-0.15
43.03,-1.07,-0.93,-1.07,-0.92,0.92,0.98,1.40,-0.16,-0.15,-0.15
43.46,-1.04,-0.89,-1.04,-0.89,0.89,0.97,1.38,-0.15,-0.15,-0.15
43.90,-0.99,-0.85,-1.01,-0.86,0.87,0.96,1.35,-0.13,-0.14,-0.14
44.33,-0.99,-0.84,-0.98,-0.83,0.84,0.95,1.33,-0.15,-0.13,-0.15
44.78,-0.94,-0.80,-0.96,-0.81,0.82,0.93,1.31,-0.13,-0.14,-0.14
45.23,-0.94,-0.80,-0.94,-0.80,0.79,0.92,1.29,-0.15,-0.15,-0.15
45.68,-0.94,-0.80,-0.93,-0.78,0.77,0.91,1.28,-0.17,-0.16,-0.14
46.13,-0.90,-0.75,-0.92,-0.76,0.75,0.90,1.26,-0.15,-0.17,-0.15
46.60,-0.90,-0.73,-0.91,-0.73,0.73,0.89,1.24,-0.17,-0.17,-0.17
47.06,-0.90,-0.70,-0.90,-0.71,0.72,0.88,1.23,-0.19,-0.18,-0.20
47.53,-0.90,-0.71,-0.90,-0.70,0.71,0.87,1.22,-0.20,-0.20,-0.20
48.01,-0.90,-0.71,-0.90,-0.70,0.70,0.87,1.20,-0.20,-0.20,-0.19
48.49,-0.90,-0.70,-0.90,-0.71,0.70,0.86,1.19,-0.20,-0.20,-0.20
48.97,-0.90,-0.71,-0.91,-0.71,0.72,0.85,1.18,-0.19,-0.20,-0.20
49.46,-0.93,-0.72,-0.93,-0.72,0.73,0.85,1.17,-0.20,-0.20,-0.21
49.96,-0.96,-0.74,-0.96,-0.75,0.76,0.84,1.16,-0.21,-0.20,-0.22
50.46,-0.99,-0.79,-1.00,-0.79,0.79,0.84,1.15,-0.21,-0.21,-0.20
50.96,-1.03,-0.84,-1.03,-0.83,0.82,0.84,1.14,-0.21,-0.21,-0.20
51.47,-1.07,-0.88,-1.07,-0.87,0.87,0.84,1.13,-0.21,-0.20,-0.20
51.99,-1.10,-0.91,-1.11,-0.91,0.92,0.84,1.13,-0.19,-0.19,-0.19
52.51,-1.14,-0.94,-1.14,-0.95,0.97,0.84,1.12,-0.17,-0.17,-0.20
53.03,-1.18,-1.00,-1.19,-1.01,1.03,0.85,1.11,-0.16,-0.16,-0.18
53.56,-1.24,-1.08,-1.24,-1.08,1.08,0.86,1.11,-0.16,-0.16,-0.16
54.10,-1.30,-1.15,-1.30,-1.14,1.13,0.87,1.10,-0.17,-0.17,-0.15
54.64,-1.34,-1.19,-1.35,-1.20,1.18,0.88,1.09,-0.17,-0.17,-0.15
55.18,-1.38,-1.23,-1.39,-1.24,1.22,0.89,1.09,-0.16,-0.17,-0.15
55.74,-1.42,-1.27,-1.41,-1.26,1.25,0.91,1.08,-0.17,-0.15,-0.15
56.29,-1.42,-1.28,-1.43,-1.28,1.28,0.94,1.07,-0.14,-0.15,-0.14
56.86,-1.42,-1.28,-1.44,-1.30,1.30,0.96,1.07,-0.13,-0.14,-0.14
57.42,-1.46,-1.32,-1.45,-1.30,1.31,1.00,1.06,-0.16,-0.14,-0.15
58.00,-1.46,-1.31,-1.46,-1.31,1.31,1.03,1.05,-0.15,-0.15,-0.15
58.58,-1.46,-1.31,-1.47,-1.32,1.31,1.08,1.04,-0.15,-0.15,-0.15
59.16,-1.46,-1.32,-1.46,-1.31,1.31,1.12,1.03,-0.15,-0.15,-0.14
59.76,-1.46,-1.32,-1.46,-1.32,1.31,1.18,1.02,-0.15,-0.15,-0.15
60.35,-1.46,-1.31,-1.46,-1.31,1.31,1.23,1.01,-0.15,-0.15,-0.15
60.96,-1.46,-1.32,-1.46,-1.31,1.32,1.29,1.00,-0.15,-0.15,-0.15
61.57,-1.46,-1.31,-1.46,-1.31,1.32,1.34,0.99,-0.14,-0.14,-0.15
62.18,-1.46,-1.32,-1.46,-1.32,1.33,1.38,0.97,-0.14,-0.14,-0.15
62.80,-1.46,-1.32,-1.48,-1.33,1.34,1.41,0.96,-0.13,-0.14,-0.14
63.43,-1.50,-1.35,-1.49,-1.35,1.35,1.43,0.94,-0.16,-0.15,-0.15
64.07,-1.51,-1.37,-1.51,-1.36,1.36,1.43,0.92,-0.15,-0.15,-0.15
64.71,-1.51,-1.37,-1.52,-1.37,1.37,1.41,0.91,-0.14,-0.15,-0.14
65.35,-1.51,-1.36,-1.52,-1.37,1.38,1.37,0.89,-0.13,-0.14,-0.15
66.01,-1.53,-1.38,-1.53,-1.38,1.38,1.31,0.87,-0.15,-0.15,-0.15
66.67,-1.53,-1.38,-1.53,-1.38,1.37,1.25,0.85,-0.16,-0.16,-0.15
67.33,-1.51,-1.36,-1.52,-1.37,1.35,1.18,0.83,-0.16,-0.17,-0.15
68.01,-1.49,-1.34,-1.48,-1.33,1.31,1.10,0.80,-0.18,-0.17,-0.15
68.69,-1.42,-1.27,-1.43,-1.28,1.26,1.03,0.78,-0.16,-0.17,-0.15
69.37,-1.36,-1.21,-1.36,-1.21,1.20,0.97,0.76,-0.16,-0.16,-0.15
70.07,-1.26,-1.12,-1.27,-1.13,1.13,0.90,0.73,-0.14,-0.15,-0.14
70.77,-1.18,-1.04,-1.19,-1.04,1.04,0.85,0.71,-0.14,-0.14,-0.15
71.48,-1.10,-0.95,-1.09,-0.94,0.95,0.79,0.68,-0.15,-0.14,-0.15
72.19,-0.99,-0.84,-1.00,-0.85,0.86,0.75,0.65,-0.13,-0.14,-0.15
72.91,-0.90,-0.76,-0.91,-0.76,0.76,0.70,0.63,-0.14,-0.15,-0.15
73.64,-0.83,-0.68,-0.82,-0.67,0.67,0.67,0.60,-0.16,-0.15,-0.15
74.38,-0.73,-0.59,-0.74,-0.59,0.58,0.63,0.57,-0.15,-0.16,-0.15
75.12,-0.65,-0.51,-0.65,-0.51,0.50,0.60,0.55,-0.15,-0.16,-0.14
75.87,-0.57,-0.42,-0.57,-0.42,0.43,0.57,0.52,-0.15,-0.14,-0.15
76.63,-0.49,-0.35,-0.49,-0.35,0.37,0.54,0.49,-0.13,-0.12,-0.15
77.40,-0.42,-0.28,-0.43,-0.28,0.32,0.52,0.46,-0.11,-0.11,-0.14
78.17,-0.38,-0.24,-0.39,-0.25,0.27,0.50,0.43,-0.11,-0.12,-0.14
78.95,-0.38,-0.23,-0.38,-0.23,0.24,0.48,0.41,-0.15,-0.15,-0.15
79.74,-0.38,-0.23,-0.38,-0.22,0.20,0.46,0.38,-0.18,-0.17,-0.15
80.54,-0.36,-0.21,-0.36,-0.21,0.17,0.44,0.35,-0.19,-0.19,-0.15
81.35,-0.31,-0.16,-0.31,-0.17,0.14,0.43,0.32,-0.17,-0.17,-0.15
82.16,-0.26,-0.12,-0.26,-0.12,0.11,0.41,0.29,-0.15,-0.15,-0.14
82.98,-0.20,-0.06,-0.21,-0.07,0.08,0.40,0.26,-0.13,-0.14,-0.15
83.81,-0.17,-0.03,-0.17,-0.03,0.04,0.39,0.23,-0.13,-0.13,-0.15
84.65,-0.14,0.01,-0.14,0.01,0.00,0.38,0.21,-0.14,-0.14,-0.15
85.50,-0.11,0.03,-0.11,0.04,-0.03,0.36,0.18,-0.15,-0.15,-0.14
86.35,-0.08,0.06,-0.09,0.06,-0.07,0.35,0.15,-0.15,-0.15,-0.15
87.22,-0.05,0.10,-0.05,0.10,-0.09,0.34,0.12,-0.15,-0.15,-0.15
88.09,-0.03,0.11,-0.03,0.12,-0.12,0.33,0.09,-0.15,-0.15,-0.15
88.97,0.01,0.16,-0.01,0.14,-0.15,0.33,0.06,-0.14,-0.15,-0.15
89.86,0.01,0.15,0.02,0.17,-0.17,0.32,0.04,-0.16,-0.15,-0.15
90.76,0.05,0.19,0.04,0.19,-0.20,0.31,0.01,-0.15,-0.15,-0.14
91.66,0.07,0.22,0.06,0.21,-0.22,0.30,-0.02,-0.15,-0.15,-0.15
92.58,0.10,0.24,0.09,0.24,-0.24,0.29,-0.05,-0.14,-0.15,-0.15
93.51,0.10,0.24,0.11,0.26,-0.25,0.29,-0.08,-0.16,-0.14,-0.15
94.44,0.14,0.29,0.13,0.28,-0.26,0.28,-0.10,-0.13,-0.14,-0.15
95.39,0.14,0.29,0.13,0.28,-0.27,0.27,-0.13,-0.14,-0.14,-0.15
96.34,0.14,0.29,0.14,0.29,-0.28,0.27,-0.16,-0.15,-0.14,-0.15
97.30,0.14,0.28,0.13,0.28,-0.29,0.26,-0.19,-0.15,-0.16,-0.15
98.28,0.14,0.28,0.14,0.28,-0.30,0.25,-0.22,-0.16,-0.16,-0.15
99.26,0.14,0.28,0.15,0.29,-0.30,0.25,-0.24,-0.17,-0.15,-0.14
100.25,0.18,0.32,0.16,0.31,-0.31,0.24,-0.27,-0.13,-0.15,-0.14
101.25,0.18,0.32,0.17,0.32,-0.32,0.24,-0.30,-0.14,-0.15,-0.14
102.27,0.18,0.33,0.19,0.34,-0.33,0.23,-0.32,-0.16,-0.14,-0.15
103.29,0.20,0.35,0.20,0.35,-0.35,0.23,-0.35,-0.15,-0.15,-0.15
104.32,0.23,0.38,0.21,0.36,-0.36,0.22,-0.38,-0.14,-0.15,-0.15
105.37,0.23,0.38,0.23,0.38,-0.38,0.22,-0.40,-0.15,-0.15,-0.15
106.42,0.23,0.38,0.24,0.39,-0.39,0.22,-0.43,-0.17,-0.15,-0.15
107.48,0.27,0.42,0.25,0.40,-0.40,0.21,-0.45,-0.14,-0.15,-0.15
108.56,0.27,0.41,0.27,0.41,-0.41,0.21,-0.47,-0.15,-0.15,-0.15
109.64,0.27,0.41,0.28,0.43,-0.42,0.20,-0.50,-0.16,-0.14,-0.15
110.74,0.31,0.45,0.29,0.44,-0.44,0.20,-0.52,-0.13,-0.14,-0.15
111.85,0.31,0.45,0.30,0.45,-0.45,0.20,-0.54,-0.14,-0.14,-0.15
112.97,0.31,0.45,0.31,0.45,-0.46,0.19,-0.56,-0.15,-0.15,-0.14
114.10,0.31,0.45,0.31,0.46,-0.47,0.19,-0.58,-0.16,-0.16,-0.14
115.24,0.33,0.48,0.33,0.48,-0.49,0.19,-0.60,-0.16,-0.16,-0.15
116.39,0.36,0.51,0.35,0.49,-0.50,0.18,-0.61,-0.14,-0.15,-0.15
117.55,0.36,0.50,0.36,0.51,-0.51,0.18,-0.63,-0.16,-0.15,-0.15
118.73,0.36,0.52,0.36,0.52,-0.52,0.18,-0.64,-0.17,-0.16,-0.16
119.92,0.36,0.54,0.36,0.54,-0.53,0.17,-0.65,-0.17,-0.17,-0.18
121.12,0.36,0.55,0.35,0.55,-0.53,0.17,-0.66,-0.17,-0.18,-0.20
122.33,0.36,0.55,0.34,0.54,-0.53,0.17,-0.67,-0.17,-0.19,-0.19
123.55,0.31,0.51,0.32,0.52,-0.52,0.16,-0.68,-0.21,-0.19,-0.20
124.79,0.31,0.50,0.31,0.51,-0.51,0.16,-0.68,-0.20,-0.20,-0.20
126.03,0.31,0.51,0.29,0.49,-0.50,0.16,-0.69,-0.20,-0.21,-0.20
127.29,0.29,0.48,0.28,0.48,-0.50,0.16,-0.69,-0.21,-0.21,-0.20
128.57,0.27,0.47,0.28,0.47,-0.49,0.15,-0.69,-0.22,-0.21,-0.20
129.85,0.27,0.46,0.28,0.47,-0.49,0.15,-0.69,-0.22,-0.21,-0.19
131.15,0.31,0.50,0.29,0.49,-0.48,0.15,-0.69,-0.18,-0.19,-0.20
132.46,0.31,0.50,0.31,0.51,-0.48,0.15,-0.68,-0.18,-0.17,-0.20
133.79,0.31,0.51,0.31,0.51,-0.48,0.15,-0.68,-0.18,-0.17,-0.20
135.12,0.31,0.51,0.29,0.49,-0.49,0.14,-0.67,-0.18,-0.20,-0.20
136.48,0.27,0.47,0.28,0.48,-0.49,0.14,-0.66,-0.22,-0.21,-0.20
137.84,0.27,0.46,0.28,0.48,-0.50,0.14,-0.65,-0.23,-0.22,-0.19
139.22,0.31,0.51,0.29,0.49,-0.51,0.14,-0.64,-0.20,-0.22,-0.20
140.61,0.31,0.51,0.31,0.52,-0.52,0.14,-0.63,-0.21,-0.21,-0.20
142.02,0.34,0.54,0.33,0.54,-0.54,0.14,-0.62,-0.20,-0.20,-0.20
143.44,0.36,0.57,0.35,0.56,-0.56,0.13,-0.61,-0.21,-0.21,-0.22
144.87,0.37,0.58,0.37,0.59,-0.59,0.13,-0.59,-0.23,-0.22,-0.22
146.32,0.40,0.62,0.39,0.61,-0.62,0.13,-0.58,-0.22,-0.23,-0.22
147.78,0.40,0.62,0.41,0.64,-0.64,0.13,-0.56,-0.24,-0.23,-0.23
149.26,0.44,0.68,0.43,0.67,-0.65,0.13,-0.55,-0.22,-0.23,-0.24
150.75,0.44,0.69,0.43,0.68,-0.66,0.13,-0.53,-0.22,-0.23,-0.25
152.26,0.44,0.68,0.44,0.68,-0.66,0.13,-0.52,-0.23,-0.22,-0.24
153.78,0.44,0.65,0.44,0.67,-0.66,0.12,-0.50,-0.23,-0.23,-0.22
155.32,0.44,0.66,0.44,0.65,-0.66,0.12,-0.48,-0.23,-0.23,-0.22
156.88,0.44,0.65,0.43,0.64,-0.66,0.12,-0.47,-0.23,-0.23,-0.21
158.44,0.44,0.63,0.44,0.64,-0.66,0.12,-0.45,-0.22,-0.22,-0.20
160.03,0.45,0.64,0.45,0.65,-0.66,0.12,-0.44,-0.21,-0.21,-0.20
161.63,0.47,0.66,0.46,0.65,-0.66,0.12,-0.42,-0.19,-0.20,-0.20
163.24,0.47,0.66,0.47,0.67,-0.65,0.12,-0.40,-0.19,-0.19,-0.20
164.88,0.47,0.66,0.47,0.66,-0.65,0.12,-0.39,-0.18,-0.18,-0.20
166.53,0.47,0.66,0.47,0.65,-0.64,0.12,-0.37,-0.17,-0.17,-0.20
168.19,0.47,0.61,0.47,0.63,-0.62,0.12,-0.36,-0.16,-0.15,-0.15
169.87,0.47,0.61,0.46,0.60,-0.60,0.12,-0.34,-0.14,-0.14,-0.14
171.57,0.47,0.58,0.46,0.58,-0.58,0.12,-0.33,-0.12,-0.13,-0.11
173.29,0.44,0.54,0.45,0.55,-0.56,0.12,-0.31,-0.13,-0.12,-0.11
175.02,0.44,0.54,0.44,0.53,-0.54,0.12,-0.30,-0.10,-0.10,-0.11
176.77,0.44,0.50,0.44,0.51,-0.52,0.11,-0.28,-0.09,-0.09,-0.06
178.54,0.45,0.50,0.45,0.50,-0.50,0.11,-0.27,-0.06,-0.05,-0.06
180.32,0.47,0.49,0.47,0.49,-0.49,0.11,-0.25,-0.02,-0.02,-0.02
182.13,0.49,0.49,0.48,0.48,-0.47,0.11,-0.24,0.02,0.01,-0.01
183.95,0.49,0.46,0.49,0.46,-0.45,0.11,-0.23,0.04,0.04,0.03
185.79,0.49,0.43,0.49,0.43,-0.43,0.11,-0.22,0.06,0.06,0.06
187.65,0.49,0.40,0.49,0.40,-0.41,0.11,-0.20,0.08,0.08,0.08
189.52,0.49,0.38,0.49,0.38,-0.38,0.11,-0.19,0.10,0.10,0.11
191.42,0.49,0.35,0.49,0.35,-0.36,0.11,-0.18,0.13,0.13,0.14
193.33,0.49,0.33,0.48,0.33,-0.34,0.11,-0.17,0.15,0.15,0.15
195.27,0.49,0.31,0.49,0.31,-0.32,0.11,-0.15,0.17,0.17,0.17
197.22,0.49,0.27,0.49,0.29,-0.29,0.12,-0.14,0.19,0.20,0.21
199.19,0.51,0.29,0.50,0.28,-0.27,0.12,-0.13,0.24,0.23,0.22
201.18,0.51,0.27,0.50,0.26,-0.25,0.12,-0.12,0.26,0.26,0.24
203.19,0.50,0.23,0.50,0.23,-0.22,0.12,-0.11,0.28,0.28,0.27
205.23,0.49,0.20,0.49,0.20,-0.19,0.12,-0.10,0.29,0.30,0.29
207.28,0.49,0.17,0.49,0.16,-0.17,0.12,-0.09,0.32,0.32,0.32
209.35,0.49,0.12,0.49,0.13,-0.14,0.12,-0.08,0.35,0.35,0.36
211.44,0.49,0.09,0.49,0.10,-0.11,0.12,-0.07,0.37,0.37,0.39
213.56,0.49,0.07,0.49,0.08,-0.09,0.12,-0.06,0.40,0.40,0.41
215.69,0.49,0.07,0.49,0.06,-0.06,0.12,-0.04,0.43,0.43,0.42
217.85,0.49,0.04,0.49,0.05,-0.03,0.12,-0.03,0.45,0.46,0.45
220.03,0.49,0.04,0.49,0.03,-0.00,0.12,-0.02,0.48,0.48,0.45
222.23,0.49,-0.02,0.48,-0.01,0.03,0.13,-0.01,0.51,0.51,0.50
224.45,0.47,-0.04,0.47,-0.05,0.05,0.13,-0.00,0.52,0.52,0.51
226.70,0.45,-0.10,0.45,-0.10,0.08,0.13,0.00,0.53,0.53,0.55
228.96,0.44,-0.14,0.44,-0.13,0.11,0.13,0.01,0.54,0.55,0.57
231.25,0.44,-0.16,0.43,-0.15,0.13,0.13,0.02,0.57,0.57,0.60
233.57,0.44,-0.15,0.44,-0.16,0.15,0.13,0.03,0.59,0.59,0.59
235.90,0.44,-0.16,0.44,-0.17,0.17,0.13,0.04,0.61,0.61,0.59
238.26,0.45,-0.19,0.44,-0.18,0.19,0.14,0.05,0.64,0.63,0.64
240.64,0.45,-0.20,0.45,-0.19,0.21,0.14,0.06,0.65,0.65,0.64
243.05,0.44,-0.21,0.44,-0.21,0.22,0.14,0.07,0.66,0.66,0.65
245.48,0.44,-0.22,0.42,-0.24,0.25,0.14,0.08,0.68,0.67,0.65
247.93,0.40,-0.30,0.41,-0.27,0.27,0.15,0.09,0.67,0.68,0.70
250.41,0.40,-0.30,0.40,-0.29,0.29,0.15,0.10,0.69,0.69,0.69
252.92,0.40,-0.29,0.38,-0.32,0.31,0.15,0.11,0.71,0.69,0.69
255.45,0.36,-0.36,0.37,-0.34,0.33,0.15,0.12,0.69,0.70,0.71
258.00,0.36,-0.37,0.36,-0.36,0.34,0.16,0.13,0.70,0.70,0.73
260.58,0.36,-0.36,0.36,-0.36,0.35,0.16,0.14,0.71,0.71,0.71
263.19,0.38,-0.33,0.37,-0.35,0.35,0.16,0.15,0.73,0.72,0.71
265.82,0.38,-0.34,0.38,-0.34,0.35,0.17,0.16,0.73,0.73,0.72
268.48,0.40,-0.34,0.39,-0.34,0.34,0.17,0.17,0.74,0.73,0.73
271.16,0.40,-0.33,0.40,-0.34,0.33,0.17,0.18,0.73,0.73,0.73
273.87,0.40,-0.34,0.40,-0.33,0.32,0.18,0.19,0.72,0.72,0.74
276.61,0.40,-0.32,0.40,-0.32,0.32,0.18,0.21,0.71,0.71,0.71
279.38,0.40,-0.30,0.40,-0.31,0.31,0.19,0.22,0.71,0.71,0.70
282.17,0.40,-0.30,0.40,-0.30,0.31,0.19,0.23,0.70,0.70,0.70
284.99,0.40,-0.30,0.40,-0.30,0.30,0.20,0.24,0.70,0.70,0.69
287.84,0.40,-0.29,0.40,-0.30,0.30,0.20,0.25,0.70,0.70,0.69
290.72,0.40,-0.29,0.40,-0.30,0.30,0.21,0.26,0.69,0.69,0.69
293.63,0.40,-0.30,0.40,-0.30,0.29,0.21,0.28,0.69,0.69,0.70
296.57,0.40,-0.30,0.40,-0.30,0.29,0.22,0.29,0.69,0.69,0.69
299.53,0.40,-0.29,0.40,-0.29,0.29,0.23,0.30,0.68,0.68,0.69
302.53,0.40,-0.29,0.39,-0.29,0.28,0.24,0.31,0.68,0.67,0.69
305.55,0.40,-0.28,0.40,-0.29,0.27,0.24,0.33,0.67,0.67,0.68
308.61,0.40,-0.29,0.41,-0.28,0.27,0.25,0.34,0.67,0.68,0.68
311.69,0.44,-0.26,0.43,-0.26,0.27,0.26,0.36,0.71,0.70,0.69
314.81,0.44,-0.25,0.43,-0.26,0.27,0.27,0.37,0.71,0.71,0.69
317.96,0.44,-0.25,0.43,-0.26,0.28,0.28,0.39,0.71,0.71,0.69
321.14,0.41,-0.29,0.42,-0.28,0.29,0.29,0.40,0.69,0.70,0.70
324.35,0.40,-0.30,0.40,-0.31,0.30,0.30,0.42,0.70,0.70,0.69
327.59,0.40,-0.34,0.38,-0.34,0.33,0.32,0.43,0.72,0.71,0.73
330.87,0.36,-0.38,0.37,-0.35,0.35,0.33,0.45,0.71,0.72,0.73
334.18,0.36,-0.37,0.36,-0.38,0.38,0.34,0.47,0.74,0.74,0.73
337.52,0.36,-0.37,0.34,-0.40,0.41,0.36,0.48,0.77,0.75,0.73
340.90,0.31,-0.45,0.32,-0.43,0.44,0.38,0.50,0.74,0.76,0.76
344.30,0.31,-0.48,0.31,-0.47,0.46,0.39,0.52,0.77,0.77,0.79
347.75,0.31,-0.48,0.30,-0.50,0.49,0.41,0.54,0.79,0.79,0.78
351.23,0.31,-0.53,0.31,-0.51,0.51,0.43,0.56,0.81,0.81,0.83
354.74,0.31,-0.53,0.31,-0.54,0.53,0.46,0.58,0.84,0.84,0.83
358.28,0.31,-0.56,0.31,-0.55,0.55,0.48,0.60,0.86,0.86,0.87
361.87,0.31,-0.56,0.31,-0.56,0.57,0.51,0.62,0.87,0.87,0.87
365.49,0.31,-0.56,0.31,-0.58,0.59,0.53,0.64,0.89,0.89,0.87
369.14,0.31,-0.61,0.31,-0.60,0.61,0.56,0.66,0.91,0.91,0.92
372.83,0.31,-0.62,0.31,-0.63,0.63,0.60,0.68,0.93,0.93,0.93
376.56,0.31,-0.67,0.31,-0.66,0.65,0.63,0.70,0.96,0.96,0.98
380.33,0.31,-0.67,0.31,-0.68,0.68,0.67,0.72,0.99,0.99,0.97
384.13,0.31,-0.71,0.31,-0.71,0.71,0.70,0.75,1.02,1.02,1.01
387.97,0.31,-0.75,0.31,-0.74,0.74,0.74,0.77,1.05,1.05,1.05
391.85,0.31,-0.78,0.31,-0.77,0.78,0.78,0.79,1.08,1.09,1.08
395.77,0.31,-0.81,0.30,-0.81,0.81,0.82,0.82,1.12,1.11,1.11
399.73,0.31,-0.83,0.29,-0.84,0.84,0.86,0.84,1.15,1.13,1.14
403.72,0.27,-0.88,0.28,-0.88,0.87,0.89,0.87,1.14,1.15,1.15
407.76,0.27,-0.90,0.27,-0.90,0.90,0.93,0.89,1.16,1.17,1.17
411.84,0.27,-0.93,0.26,-0.93,0.92,0.96,0.91,1.19,1.19,1.20
415.96,0.27,-0.93,0.27,-0.95,0.95,0.98,0.94,1.21,1.21,1.20
420.12,0.27,-0.98,0.27,-0.97,0.97,0.99,0.96,1.24,1.24,1.25
424.32,0.27,-0.99,0.27,-0.98,0.99,1.00,0.98,1.25,1.26,1.26
428.56,0.27,-0.99,0.27,-1.00,1.01,1.01,1.01,1.27,1.27,1.26
432.85,0.27,-1.02,0.26,-1.02,1.02,1.00,1.03,1.29,1.29,1.29
437.18,0.26,-1.04,0.26,-1.03,1.04,0.99,1.05,1.29,1.30,1.30
441.55,0.25,-1.05,0.25,-1.05,1.05,0.97,1.07,1.30,1.30,1.29
445.96,0.25,-1.05,0.24,-1.06,1.06,0.95,1.09,1.30,1.30,1.29
450.42,0.23,-1.07,0.23,-1.06,1.06,0.93,1.11,1.29,1.29,1.29
454.93,0.23,-1.07,0.23,-1.06,1.06,0.91,1.13,1.28,1.28,1.29
459.48,0.23,-1.06,0.22,-1.05,1.04,0.89,1.15,1.27,1.27,1.28
464.07,0.23,-1.03,0.23,-1.03,1.02,0.86,1.17,1.25,1.25,1.25
468.71,0.23,-1.00,0.23,-1.00,0.99,0.84,1.18,1.22,1.22,1.22
473.40,0.23,-0.97,0.23,-0.96,0.96,0.82,1.19,1.18,1.18,1.19
478.13,0.23,-0.91,0.23,-0.91,0.91,0.80,1.20,1.14,1.14,1.14
482.91,0.23,-0.85,0.23,-0.86,0.87,0.79,1.21,1.09,1.09,1.08
487.74,0.23,-0.81,0.23,-0.81,0.82,0.77,1.22,1.04,1.04,1.04
492.62,0.23,-0.77,0.23,-0.77,0.77,0.76,1.23,0.99,0.99,1.00
